Time, Data
0:0:0:0, 1347 
0:0:0:25, 1299 
0:0:0:40, 1274 
0:0:0:55, 1250 
0:0:0:71, 1241 
0:0:0:87, 1239 
0:0:0:102, 1248 
0:0:0:118, 1261 
0:0:0:134, 1266 
0:0:0:150, 1275 
0:0:0:166, 1282 
0:0:0:182, 1285 
0:0:0:198, 1292 
0:0:0:214, 1304 
0:0:0:230, 1371 
0:0:0:246, 1476 
0:0:0:262, 1717 
0:0:0:277, 2054 
0:0:0:292, 2439 
0:0:0:307, 2887 
0:0:0:323, 3128 
0:0:0:339, 3305 
0:0:0:355, 3355 
0:0:0:371, 3308 
0:0:0:387, 3187 
0:0:0:403, 2979 
0:0:0:419, 2794 
0:0:0:435, 2607 
0:0:0:451, 2422 
0:0:0:466, 2246 
0:0:0:481, 2088 
0:0:0:497, 1937 
0:0:0:512, 1862 
0:0:0:527, 1833 
0:0:0:542, 1844 
0:0:0:558, 1892 
0:0:0:574, 1935 
0:0:0:590, 1973 
0:0:0:606, 1980 
0:0:0:622, 1963 
0:0:0:638, 1927 
0:0:0:654, 1878 
0:0:0:670, 1819 
0:0:0:686, 1770 
0:0:0:701, 1682 
0:0:0:717, 1613 
0:0:0:733, 1547 
0:0:0:748, 1488 
0:0:0:763, 1418 
0:0:0:778, 1380 
0:0:0:793, 1321 
0:0:0:809, 1283 
0:0:0:825, 1255 
0:0:0:841, 1237 
0:0:0:857, 1222 
0:0:0:873, 1203 
0:0:0:888, 1198 
0:0:0:904, 1235 
0:0:0:920, 1419 
0:0:0:936, 1707 
0:0:0:952, 2196 
0:0:0:968, 2614 
0:0:0:983, 2976 
0:0:0:998, 3297 
0:0:1:14, 3366 
0:0:1:29, 3373 
0:0:1:44, 3365 
0:0:1:59, 3333 
0:0:1:75, 3255 
0:0:1:90, 3154 
0:0:1:105, 3011 
0:0:1:121, 2882 
0:0:1:137, 2783 
0:0:1:153, 2713 
0:0:1:169, 2655 
0:0:1:185, 2598 
0:0:1:202, 2499 
0:0:1:217, 2382 
0:0:1:232, 2282 
0:0:1:247, 2125 
0:0:1:263, 2060 
0:0:1:279, 2009 
0:0:1:294, 1980 
0:0:1:309, 1948 
0:0:1:325, 1925 
0:0:1:341, 1912 
0:0:1:356, 1926 
0:0:1:372, 1965 
0:0:1:388, 2010 
0:0:1:403, 2053 
0:0:1:419, 2079 
0:0:1:435, 2049 
0:0:1:450, 1970 
0:0:1:465, 1873 
0:0:1:481, 1746 
0:0:1:496, 1601 
0:0:1:512, 1410 
0:0:1:528, 1347 
0:0:1:544, 1342 
0:0:1:560, 1362 
0:0:1:576, 1358 
0:0:1:591, 1322 
0:0:1:607, 1252 
0:0:1:623, 1240 
0:0:1:639, 1466 
0:0:1:655, 1803 
0:0:1:670, 2051 
0:0:1:685, 2294 
0:0:1:700, 2381 
0:0:1:715, 2263 
0:0:1:730, 2026 
0:0:1:746, 1706 
0:0:1:762, 1250 
0:0:1:778, 882 
0:0:1:794, 534 
0:0:1:810, 132 
0:0:1:826, 0 
0:0:1:842, 0 
0:0:1:858, 0 
0:0:1:874, 0 
0:0:1:890, 0 
0:0:1:905, 0 
0:0:1:920, 0 
0:0:1:935, 0 
0:0:1:950, 0 
0:0:1:966, 0 
0:0:1:981, 0 
0:0:1:997, 0 
0:0:2:13, 0 
0:0:2:28, 0 
0:0:2:43, 0 
0:0:2:58, 0 
0:0:2:74, 0 
0:0:2:90, 0 
0:0:2:105, 0 
0:0:2:121, 0 
0:0:2:136, 0 
0:0:2:151, 0 
0:0:2:166, 0 
0:0:2:182, 0 
0:0:2:198, 0 
0:0:2:214, 0 
0:0:2:230, 0 
0:0:2:246, 0 
0:0:2:262, 0 
0:0:2:278, 0 
0:0:2:294, 0 
0:0:2:309, 0 
0:0:2:325, 0 
0:0:2:341, 0 
0:0:2:357, 421 
0:0:2:373, 1666 
0:0:2:388, 3031 
0:0:2:403, 4060 
0:0:2:419, 4061 
0:0:2:435, 3674 
0:0:2:451, 3519 
0:0:2:467, 3375 
0:0:2:483, 3207 
0:0:2:499, 2982 
0:0:2:515, 2846 
0:0:2:531, 2665 
0:0:2:547, 2447 
0:0:2:563, 2285 
0:0:2:579, 2114 
0:0:2:595, 2018 
0:0:2:610, 1960 
0:0:2:625, 1965 
0:0:2:640, 2005 
0:0:2:656, 2076 
0:0:2:672, 2125 
0:0:2:688, 2155 
0:0:2:703, 2146 
0:0:2:719, 2132 
0:0:2:735, 2089 
0:0:2:750, 2029 
0:0:2:765, 1959 
0:0:2:781, 1868 
0:0:2:797, 1809 
0:0:2:813, 1778 
0:0:2:829, 1772 
0:0:2:845, 1776 
0:0:2:860, 1791 
0:0:2:875, 1810 
0:0:2:891, 1831 
0:0:2:906, 1843 
0:0:2:922, 1851 
0:0:2:938, 1867 
0:0:2:953, 1878 
0:0:2:969, 1886 
0:0:2:985, 1895 
0:0:3:0, 1902 
0:0:3:16, 1918 
0:0:3:32, 1948 
0:0:3:47, 2094 
0:0:3:62, 2355 
0:0:3:77, 2703 
0:0:3:92, 3058 
0:0:3:107, 3401 
0:0:3:123, 3556 
0:0:3:139, 3604 
0:0:3:155, 3583 
0:0:3:171, 3469 
0:0:3:187, 3296 
0:0:3:203, 3141 
0:0:3:219, 2940 
0:0:3:234, 2781 
0:0:3:250, 2588 
0:0:3:266, 2448 
0:0:3:281, 2331 
0:0:3:297, 2228 
0:0:3:312, 2181 
0:0:3:327, 2178 
0:0:3:342, 2183 
0:0:3:357, 2202 
0:0:3:373, 2242 
0:0:3:389, 2266 
0:0:3:405, 2272 
0:0:3:421, 2251 
0:0:3:437, 2214 
0:0:3:452, 2167 
0:0:3:468, 2095 
0:0:3:484, 2030 
0:0:3:500, 1948 
0:0:3:515, 1884 
0:0:3:531, 1825 
0:0:3:547, 1770 
0:0:3:562, 1734 
0:0:3:577, 1679 
0:0:3:592, 1642 
0:0:3:608, 1609 
0:0:3:623, 1575 
0:0:3:638, 1555 
0:0:3:654, 1536 
0:0:3:670, 1521 
0:0:3:686, 1533 
0:0:3:702, 1663 
0:0:3:717, 1907 
0:0:3:733, 2334 
0:0:3:748, 2591 
0:0:3:763, 2878 
0:0:3:779, 3069 
0:0:3:794, 3160 
0:0:3:810, 3165 
0:0:3:826, 3104 
0:0:3:842, 3030 
0:0:3:857, 2907 
0:0:3:873, 2737 
0:0:3:889, 2600 
0:0:3:904, 2433 
0:0:3:920, 2306 
0:0:3:936, 2164 
0:0:3:951, 2096 
0:0:3:967, 2032 
0:0:3:983, 2009 
0:0:3:998, 2020 
0:0:4:14, 2055 
0:0:4:29, 2102 
0:0:4:44, 2153 
0:0:4:59, 2176 
0:0:4:75, 2177 
0:0:4:91, 2155 
0:0:4:106, 2104 
0:0:4:122, 2050 
0:0:4:138, 1975 
0:0:4:154, 1926 
0:0:4:170, 1861 
0:0:4:186, 1783 
0:0:4:201, 1728 
0:0:4:216, 1679 
0:0:4:231, 1635 
0:0:4:246, 1595 
0:0:4:261, 1559 
0:0:4:276, 1525 
0:0:4:291, 1494 
0:0:4:307, 1465 
0:0:4:322, 1439 
0:0:4:338, 1423 
0:0:4:354, 1416 
0:0:4:370, 1464 
0:0:4:386, 1633 
0:0:4:401, 1932 
0:0:4:416, 2385 
0:0:4:432, 2702 
0:0:4:448, 2965 
0:0:4:464, 3060 
0:0:4:480, 3060 
0:0:4:495, 2993 
0:0:4:511, 2861 
0:0:4:527, 2738 
0:0:4:543, 2577 
0:0:4:559, 2417 
0:0:4:575, 2322 
0:0:4:591, 2175 
0:0:4:606, 2077 
0:0:4:622, 1994 
0:0:4:638, 1966 
0:0:4:654, 1978 
0:0:4:670, 2024 
0:0:4:686, 2067 
0:0:4:701, 2105 
0:0:4:717, 2114 
0:0:4:732, 2101 
0:0:4:747, 2069 
0:0:4:763, 2024 
0:0:4:779, 1983 
0:0:4:795, 1922 
0:0:4:810, 1841 
0:0:4:826, 1793 
0:0:4:841, 1733 
0:0:4:857, 1679 
0:0:4:873, 1619 
0:0:4:889, 1578 
0:0:4:905, 1532 
0:0:4:920, 1501 
0:0:4:935, 1476 
0:0:4:951, 1453 
0:0:4:966, 1441 
0:0:4:981, 1436 
0:0:4:997, 1431 
0:0:5:12, 1427 
0:0:5:27, 1426 
0:0:5:43, 1432 
0:0:5:59, 1476 
0:0:5:75, 1682 
0:0:5:90, 1989 
0:0:5:106, 2355 
0:0:5:122, 2762 
0:0:5:138, 3030 
0:0:5:153, 3115 
0:0:5:169, 3148 
0:0:5:184, 3123 
0:0:5:199, 3043 
0:0:5:214, 2931 
0:0:5:229, 2808 
0:0:5:245, 2651 
0:0:5:261, 2529 
0:0:5:276, 2384 
0:0:5:291, 2278 
0:0:5:307, 2191 
0:0:5:323, 2127 
0:0:5:339, 2094 
0:0:5:354, 2092 
0:0:5:370, 2118 
0:0:5:386, 2158 
0:0:5:402, 2197 
0:0:5:418, 2227 
0:0:5:433, 2227 
0:0:5:448, 2208 
0:0:5:464, 2161 
0:0:5:480, 2111 
0:0:5:496, 2039 
0:0:5:512, 1978 
0:0:5:527, 1917 
0:0:5:543, 1843 
0:0:5:559, 1788 
0:0:5:574, 1737 
0:0:5:590, 1678 
0:0:5:606, 1646 
0:0:5:622, 1600 
0:0:5:638, 1569 
0:0:5:654, 1537 
0:0:5:669, 1515 
0:0:5:684, 1496 
0:0:5:699, 1479 
0:0:5:715, 1468 
0:0:5:731, 1456 
0:0:5:747, 1447 
0:0:5:763, 1436 
0:0:5:778, 1427 
0:0:5:793, 1431 
0:0:5:808, 1466 
0:0:5:824, 1611 
0:0:5:840, 1734 
0:0:5:856, 2150 
0:0:5:872, 2503 
0:0:5:888, 2852 
0:0:5:903, 3022 
0:0:5:918, 3095 
0:0:5:934, 3065 
0:0:5:950, 2955 
0:0:5:966, 2836 
0:0:5:982, 2709 
0:0:5:998, 2551 
0:0:6:14, 2459 
0:0:6:30, 2342 
0:0:6:46, 2234 
0:0:6:62, 2141 
0:0:6:78, 2055 
0:0:6:94, 2020 
0:0:6:109, 2029 
0:0:6:125, 2072 
0:0:6:140, 2117 
0:0:6:155, 2153 
0:0:6:170, 2173 
0:0:6:186, 2171 
0:0:6:203, 2149 
0:0:6:219, 2121 
0:0:6:234, 2073 
0:0:6:249, 2017 
0:0:6:264, 1941 
0:0:6:280, 1878 
0:0:6:296, 1801 
0:0:6:312, 1728 
0:0:6:328, 1699 
0:0:6:344, 1635 
0:0:6:360, 1590 
0:0:6:375, 1549 
0:0:6:390, 1514 
0:0:6:406, 1478 
0:0:6:422, 1455 
0:0:6:437, 1439 
0:0:6:453, 1418 
0:0:6:469, 1402 
0:0:6:485, 1393 
0:0:6:501, 1384 
0:0:6:517, 1379 
0:0:6:533, 1373 
0:0:6:549, 1367 
0:0:6:565, 1360 
0:0:6:581, 1364 
0:0:6:596, 1414 
0:0:6:611, 1640 
0:0:6:626, 1876 
0:0:6:642, 2155 
0:0:6:658, 2520 
0:0:6:673, 2810 
0:0:6:688, 3001 
0:0:6:704, 3076 
0:0:6:720, 3045 
0:0:6:736, 2932 
0:0:6:752, 2809 
0:0:6:768, 2677 
0:0:6:784, 2577 
0:0:6:800, 2447 
0:0:6:815, 2321 
0:0:6:831, 2260 
0:0:6:846, 2203 
0:0:6:861, 2099 
0:0:6:877, 2016 
0:0:6:893, 1957 
0:0:6:909, 1957 
0:0:6:925, 1993 
0:0:6:941, 2059 
0:0:6:957, 2110 
0:0:6:973, 2151 
0:0:6:988, 2160 
0:0:7:4, 2149 
0:0:7:20, 2116 
0:0:7:36, 2082 
0:0:7:52, 2011 
0:0:7:68, 1951 
0:0:7:83, 1889 
0:0:7:98, 1827 
0:0:7:114, 1768 
0:0:7:130, 1697 
0:0:7:146, 1633 
0:0:7:162, 1587 
0:0:7:178, 1537 
0:0:7:194, 1495 
0:0:7:209, 1468 
0:0:7:225, 1445 
0:0:7:241, 1426 
0:0:7:256, 1410 
0:0:7:271, 1395 
0:0:7:287, 1379 
0:0:7:303, 1369 
0:0:7:319, 1359 
0:0:7:334, 1352 
0:0:7:349, 1344 
0:0:7:364, 1346 
0:0:7:380, 1399 
0:0:7:395, 1573 
0:0:7:411, 1886 
0:0:7:426, 2268 
0:0:7:442, 2619 
0:0:7:457, 2823 
0:0:7:473, 3021 
0:0:7:488, 3063 
0:0:7:503, 3026 
0:0:7:518, 2903 
0:0:7:534, 2772 
0:0:7:549, 2629 
0:0:7:564, 2451 
0:0:7:580, 2314 
0:0:7:595, 2157 
0:0:7:611, 2044 
0:0:7:627, 1931 
0:0:7:642, 1876 
0:0:7:658, 1859 
0:0:7:674, 1880 
0:0:7:690, 1944 
0:0:7:705, 2005 
0:0:7:721, 2068 
0:0:7:737, 2094 
0:0:7:753, 2092 
0:0:7:769, 2063 
0:0:7:784, 2020 
0:0:7:799, 1951 
0:0:7:814, 1889 
0:0:7:830, 1841 
0:0:7:846, 1779 
0:0:7:862, 1719 
0:0:7:878, 1662 
0:0:7:894, 1610 
0:0:7:910, 1553 
0:0:7:926, 1514 
0:0:7:942, 1474 
0:0:7:958, 1446 
0:0:7:974, 1416 
0:0:7:990, 1397 
0:0:8:5, 1376 
0:0:8:20, 1366 
0:0:8:35, 1355 
0:0:8:51, 1345 
0:0:8:67, 1338 
0:0:8:83, 1334 
0:0:8:99, 1329 
0:0:8:115, 1323 
0:0:8:130, 1321 
0:0:8:145, 1348 
0:0:8:161, 1472 
0:0:8:177, 1846 
0:0:8:193, 2258 
0:0:8:209, 2739 
0:0:8:224, 3010 
0:0:8:240, 3174 
0:0:8:255, 3191 
0:0:8:270, 3122 
0:0:8:285, 3039 
0:0:8:301, 2907 
0:0:8:317, 2763 
0:0:8:333, 2654 
0:0:8:349, 2514 
0:0:8:364, 2381 
0:0:8:380, 2257 
0:0:8:396, 2124 
0:0:8:411, 2040 
0:0:8:427, 1979 
0:0:8:442, 1975 
0:0:8:457, 2006 
0:0:8:473, 2075 
0:0:8:488, 2119 
0:0:8:504, 2167 
0:0:8:520, 2195 
0:0:8:536, 2188 
0:0:8:552, 2145 
0:0:8:568, 2090 
0:0:8:584, 2006 
0:0:8:600, 1935 
0:0:8:615, 1848 
0:0:8:631, 1782 
0:0:8:647, 1704 
0:0:8:663, 1645 
0:0:8:679, 1579 
0:0:8:695, 1543 
0:0:8:711, 1501 
0:0:8:726, 1464 
0:0:8:741, 1433 
0:0:8:757, 1401 
0:0:8:773, 1380 
0:0:8:789, 1362 
0:0:8:805, 1343 
0:0:8:821, 1333 
0:0:8:837, 1330 
0:0:8:853, 1319 
0:0:8:869, 1307 
0:0:8:884, 1291 
0:0:8:899, 1284 
0:0:8:914, 1302 
0:0:8:930, 1463 
0:0:8:946, 1766 
0:0:8:961, 2170 
0:0:8:976, 2567 
0:0:8:991, 2877 
0:0:9:6, 3120 
0:0:9:22, 3158 
0:0:9:38, 3120 
0:0:9:54, 3027 
0:0:9:70, 2872 
0:0:9:86, 2730 
0:0:9:102, 2599 
0:0:9:117, 2469 
0:0:9:133, 2318 
0:0:9:149, 2208 
0:0:9:165, 2100 
0:0:9:181, 2034 
0:0:9:196, 2021 
0:0:9:212, 2040 
0:0:9:228, 2096 
0:0:9:244, 2147 
0:0:9:259, 2194 
0:0:9:274, 2205 
0:0:9:290, 2186 
0:0:9:305, 2158 
0:0:9:321, 2109 
0:0:9:337, 2066 
0:0:9:352, 2002 
0:0:9:368, 1921 
0:0:9:384, 1857 
0:0:9:400, 1781 
0:0:9:416, 1723 
0:0:9:431, 1670 
0:0:9:446, 1613 
0:0:9:462, 1567 
0:0:9:478, 1536 
0:0:9:494, 1508 
0:0:9:510, 1483 
0:0:9:526, 1461 
0:0:9:541, 1433 
0:0:9:557, 1412 
0:0:9:573, 1387 
0:0:9:589, 1365 
0:0:9:605, 1349 
0:0:9:620, 1339 
0:0:9:636, 1369 
0:0:9:652, 1563 
0:0:9:667, 1889 
0:0:9:682, 2290 
0:0:9:698, 2733 
0:0:9:714, 2922 
0:0:9:730, 3095 
0:0:9:746, 3094 
0:0:9:762, 3022 
0:0:9:777, 2875 
0:0:9:792, 2770 
0:0:9:807, 2591 
0:0:9:823, 2449 
0:0:9:839, 2380 
0:0:9:855, 2249 
0:0:9:871, 2131 
0:0:9:887, 2012 
0:0:9:902, 1952 
0:0:9:918, 1931 
0:0:9:934, 1953 
0:0:9:950, 2023 
0:0:9:966, 2091 
0:0:9:982, 2162 
0:0:9:997, 2193 
0:0:10:13, 2197 
0:0:10:29, 2176 
0:0:10:45, 2124 
0:0:10:61, 2069 
0:0:10:77, 1992 
0:0:10:93, 1929 
0:0:10:108, 1866 
0:0:10:124, 1805 
0:0:10:140, 1760 
0:0:10:155, 1705 
0:0:10:170, 1655 
0:0:10:186, 1612 
0:0:10:202, 1573 
0:0:10:218, 1546 
0:0:10:234, 1514 
0:0:10:249, 1489 
0:0:10:265, 1467 
0:0:10:281, 1452 
0:0:10:296, 1440 
0:0:10:312, 1430 
0:0:10:328, 1429 
0:0:10:344, 1441 
0:0:10:359, 1491 
0:0:10:374, 1674 
0:0:10:389, 1991 
0:0:10:405, 2367 
0:0:10:421, 2707 
0:0:10:436, 2959 
0:0:10:452, 3121 
0:0:10:468, 3148 
0:0:10:483, 3094 
0:0:10:498, 2998 
0:0:10:514, 2878 
0:0:10:530, 2782 
0:0:10:545, 2684 
0:0:10:561, 2553 
0:0:10:577, 2394 
0:0:10:592, 2276 
0:0:10:607, 2174 
0:0:10:622, 2099 
0:0:10:637, 2056 
0:0:10:652, 2061 
0:0:10:667, 2097 
0:0:10:683, 2158 
0:0:10:699, 2201 
0:0:10:715, 2227 
0:0:10:730, 2219 
0:0:10:746, 2198 
0:0:10:761, 2151 
0:0:10:777, 2091 
0:0:10:793, 2005 
0:0:10:808, 1934 
0:0:10:824, 1864 
0:0:10:839, 1829 
0:0:10:854, 1763 
0:0:10:870, 1716 
0:0:10:886, 1648 
0:0:10:901, 1591 
0:0:10:917, 1553 
0:0:10:933, 1521 
0:0:10:949, 1495 
0:0:10:964, 1474 
0:0:10:979, 1454 
0:0:10:995, 1439 
0:0:11:10, 1423 
0:0:11:26, 1418 
0:0:11:42, 1439 
0:0:11:58, 1550 
0:0:11:73, 1884 
0:0:11:88, 2252 
0:0:11:103, 2610 
0:0:11:119, 2892 
0:0:11:135, 3118 
0:0:11:151, 3156 
0:0:11:167, 3127 
0:0:11:182, 3046 
0:0:11:197, 2940 
0:0:11:212, 2793 
0:0:11:228, 2679 
0:0:11:244, 2545 
0:0:11:260, 2444 
0:0:11:276, 2350 
0:0:11:292, 2254 
0:0:11:307, 2206 
0:0:11:322, 2189 
0:0:11:338, 2197 
0:0:11:354, 2226 
0:0:11:370, 2262 
0:0:11:386, 2290 
0:0:11:401, 2303 
0:0:11:417, 2294 
0:0:11:432, 2256 
0:0:11:448, 2208 
0:0:11:464, 2134 
0:0:11:480, 2069 
0:0:11:497, 2002 
0:0:11:512, 1920 
0:0:11:528, 1859 
0:0:11:543, 1787 
0:0:11:558, 1747 
0:0:11:574, 1699 
0:0:11:590, 1648 
0:0:11:606, 1615 
0:0:11:621, 1589 
0:0:11:637, 1565 
0:0:11:652, 1550 
0:0:11:668, 1533 
0:0:11:684, 1520 
0:0:11:700, 1504 
0:0:11:716, 1501 
0:0:11:732, 1563 
0:0:11:748, 1732 
0:0:11:764, 2013 
0:0:11:779, 2260 
0:0:11:794, 2576 
0:0:11:810, 2877 
0:0:11:825, 3014 
0:0:11:841, 3069 
0:0:11:857, 3071 
0:0:11:873, 3011 
0:0:11:889, 2896 
0:0:11:905, 2791 
0:0:11:920, 2662 
0:0:11:936, 2540 
0:0:11:951, 2446 
0:0:11:967, 2355 
0:0:11:983, 2284 
0:0:11:999, 2236 
0:0:12:15, 2218 
0:0:12:30, 2231 
0:0:12:45, 2257 
0:0:12:61, 2284 
0:0:12:77, 2303 
0:0:12:93, 2299 
0:0:12:108, 2271 
0:0:12:124, 2240 
0:0:12:139, 2202 
0:0:12:155, 2173 
0:0:12:171, 2142 
0:0:12:186, 2079 
0:0:12:201, 2015 
0:0:12:216, 1955 
0:0:12:232, 1885 
0:0:12:247, 1835 
0:0:12:262, 1790 
0:0:12:278, 1740 
0:0:12:294, 1706 
0:0:12:310, 1670 
0:0:12:325, 1648 
0:0:12:341, 1636 
0:0:12:356, 1622 
0:0:12:372, 1612 
0:0:12:388, 1604 
0:0:12:404, 1597 
0:0:12:419, 1589 
0:0:12:435, 1577 
0:0:12:451, 1562 
0:0:12:467, 1545 
0:0:12:482, 1520 
0:0:12:497, 1513 
0:0:12:513, 1591 
0:0:12:529, 1776 
0:0:12:545, 2132 
0:0:12:561, 2436 
0:0:12:577, 2743 
0:0:12:593, 2893 
0:0:12:609, 2982 
0:0:12:625, 2977 
0:0:12:641, 2902 
0:0:12:657, 2784 
0:0:12:672, 2681 
0:0:12:688, 2556 
0:0:12:704, 2461 
0:0:12:719, 2348 
0:0:12:734, 2264 
0:0:12:750, 2194 
0:0:12:766, 2139 
0:0:12:782, 2125 
0:0:12:798, 2134 
0:0:12:814, 2156 
0:0:12:830, 2173 
0:0:12:846, 2189 
0:0:12:861, 2192 
0:0:12:876, 2181 
0:0:12:892, 2155 
0:0:12:907, 2127 
0:0:12:923, 2105 
0:0:12:939, 2041 
0:0:12:954, 1985 
0:0:12:969, 1925 
0:0:12:984, 1865 
0:0:12:999, 1807 
0:0:13:14, 1764 
0:0:13:29, 1711 
0:0:13:44, 1666 
0:0:13:60, 1625 
0:0:13:76, 1582 
0:0:13:91, 1555 
0:0:13:106, 1534 
0:0:13:122, 1515 
0:0:13:138, 1506 
0:0:13:154, 1498 
0:0:13:170, 1495 
0:0:13:185, 1493 
0:0:13:200, 1488 
0:0:13:216, 1484 
0:0:13:232, 1475 
0:0:13:247, 1464 
0:0:13:262, 1451 
0:0:13:277, 1453 
0:0:13:293, 1508 
0:0:13:308, 1734 
0:0:13:324, 1951 
0:0:13:340, 2283 
0:0:13:356, 2592 
0:0:13:372, 2893 
0:0:13:388, 2989 
0:0:13:403, 3030 
0:0:13:419, 3003 
0:0:13:434, 2927 
0:0:13:450, 2822 
0:0:13:466, 2677 
0:0:13:482, 2529 
0:0:13:498, 2414 
0:0:13:513, 2303 
0:0:13:529, 2181 
0:0:13:545, 2108 
0:0:13:560, 2067 
0:0:13:575, 2061 
0:0:13:591, 2096 
0:0:13:607, 2140 
0:0:13:622, 2172 
0:0:13:638, 2203 
0:0:13:653, 2213 
0:0:13:668, 2206 
0:0:13:683, 2178 
0:0:13:699, 2132 
0:0:13:714, 2059 
0:0:13:730, 1993 
0:0:13:746, 1923 
0:0:13:762, 1837 
0:0:13:777, 1770 
0:0:13:792, 1706 
0:0:13:808, 1632 
0:0:13:824, 1578 
0:0:13:839, 1566 
0:0:13:854, 1531 
0:0:13:870, 1485 
0:0:13:885, 1456 
0:0:13:900, 1432 
0:0:13:915, 1413 
0:0:13:931, 1396 
0:0:13:947, 1386 
0:0:13:963, 1379 
0:0:13:979, 1373 
0:0:13:995, 1367 
0:0:14:10, 1363 
0:0:14:26, 1389 
0:0:14:42, 1461 
0:0:14:58, 1667 
0:0:14:74, 1978 
0:0:14:90, 2403 
0:0:14:106, 2682 
0:0:14:121, 2890 
0:0:14:136, 2964 
0:0:14:152, 2938 
0:0:14:168, 2833 
0:0:14:183, 2715 
0:0:14:199, 2554 
0:0:14:215, 2448 
0:0:14:231, 2290 
0:0:14:247, 2198 
0:0:14:262, 2113 
0:0:14:278, 1993 
0:0:14:294, 1926 
0:0:14:309, 1893 
0:0:14:325, 1899 
0:0:14:341, 1937 
0:0:14:356, 1990 
0:0:14:371, 2042 
0:0:14:387, 2079 
0:0:14:403, 2091 
0:0:14:419, 2066 
0:0:14:435, 2024 
0:0:14:451, 1969 
0:0:14:467, 1906 
0:0:14:483, 1840 
0:0:14:499, 1757 
0:0:14:514, 1691 
0:0:14:530, 1614 
0:0:14:546, 1557 
0:0:14:562, 1493 
0:0:14:578, 1449 
0:0:14:593, 1400 
0:0:14:608, 1369 
0:0:14:623, 1350 
0:0:14:638, 1329 
0:0:14:653, 1314 
0:0:14:669, 1302 
0:0:14:684, 1293 
0:0:14:699, 1290 
0:0:14:715, 1312 
0:0:14:731, 1414 
0:0:14:747, 1651 
0:0:14:762, 2001 
0:0:14:777, 2466 
0:0:14:792, 2766 
0:0:14:807, 2990 
0:0:14:822, 3065 
0:0:14:837, 3070 
0:0:14:852, 3007 
0:0:14:867, 2927 
0:0:14:883, 2806 
0:0:14:899, 2644 
0:0:14:915, 2514 
0:0:14:930, 2389 
0:0:14:945, 2269 
0:0:14:961, 2132 
0:0:14:977, 2064 
0:0:14:993, 1999 
0:0:15:9, 1969 
0:0:15:25, 1986 
0:0:15:41, 2039 
0:0:15:57, 2087 
0:0:15:72, 2117 
0:0:15:87, 2139 
0:0:15:103, 2137 
0:0:15:118, 2102 
0:0:15:133, 2069 
0:0:15:149, 1999 
0:0:15:164, 1937 
0:0:15:180, 1854 
0:0:15:196, 1774 
0:0:15:212, 1712 
0:0:15:227, 1655 
0:0:15:243, 1606 
0:0:15:259, 1563 
0:0:15:274, 1529 
0:0:15:289, 1500 
0:0:15:304, 1477 
0:0:15:319, 1458 
0:0:15:335, 1450 
0:0:15:351, 1434 
0:0:15:367, 1430 
0:0:15:383, 1466 
0:0:15:399, 1657 
0:0:15:415, 1947 
0:0:15:431, 2297 
0:0:15:446, 2700 
0:0:15:462, 2957 
0:0:15:478, 3102 
0:0:15:494, 3117 
0:0:15:509, 3078 
0:0:15:525, 2994 
0:0:15:540, 2885 
0:0:15:555, 2735 
0:0:15:570, 2615 
0:0:15:586, 2468 
0:0:15:602, 2353 
0:0:15:617, 2222 
0:0:15:633, 2138 
0:0:15:649, 2071 
0:0:15:664, 2058 
0:0:15:680, 2082 
0:0:15:695, 2109 
0:0:15:710, 2147 
0:0:15:726, 2178 
0:0:15:742, 2180 
0:0:15:758, 2159 
0:0:15:773, 2121 
0:0:15:788, 2067 
0:0:15:803, 1988 
0:0:15:819, 1938 
0:0:15:835, 1887 
0:0:15:850, 1819 
0:0:15:866, 1754 
0:0:15:882, 1678 
0:0:15:898, 1636 
0:0:15:914, 1576 
0:0:15:930, 1536 
0:0:15:945, 1502 
0:0:15:960, 1474 
0:0:15:976, 1443 
0:0:15:991, 1429 
0:0:16:6, 1480 
0:0:16:21, 1644 
0:0:16:37, 2010 
0:0:16:52, 2350 
0:0:16:67, 2653 
0:0:16:83, 2943 
0:0:16:99, 3030 
0:0:16:114, 3041 
0:0:16:129, 2995 
0:0:16:144, 2906 
0:0:16:160, 2795 
0:0:16:176, 2677 
0:0:16:192, 2531 
0:0:16:208, 2419 
0:0:16:224, 2284 
0:0:16:239, 2183 
0:0:16:254, 2079 
0:0:16:269, 2023 
0:0:16:285, 2001 
0:0:16:301, 2009 
0:0:16:316, 2037 
0:0:16:332, 2054 
0:0:16:348, 2092 
0:0:16:363, 2107 
0:0:16:379, 2103 
0:0:16:395, 2073 
0:0:16:411, 2029 
0:0:16:427, 1959 
0:0:16:442, 1896 
0:0:16:458, 1831 
0:0:16:473, 1752 
0:0:16:488, 1692 
0:0:16:503, 1638 
0:0:16:519, 1588 
0:0:16:534, 1544 
0:0:16:549, 1506 
0:0:16:565, 1465 
0:0:16:581, 1439 
0:0:16:596, 1412 
0:0:16:611, 1398 
0:0:16:627, 1427 
0:0:16:643, 1555 
0:0:16:659, 1890 
0:0:16:675, 2234 
0:0:16:690, 2633 
0:0:16:705, 2888 
0:0:16:721, 3016 
0:0:16:737, 3045 
0:0:16:752, 3020 
0:0:16:768, 2938 
0:0:16:784, 2802 
0:0:16:800, 2683 
0:0:16:815, 2568 
0:0:16:831, 2513 
0:0:16:847, 2434 
0:0:16:863, 2334 
0:0:16:878, 2215 
0:0:16:894, 2132 
0:0:16:910, 2060 
0:0:16:926, 2036 
0:0:16:941, 2039 
0:0:16:956, 2056 
0:0:16:972, 2092 
0:0:16:988, 2117 
0:0:17:4, 2127 
0:0:17:19, 2120 
0:0:17:34, 2095 
0:0:17:50, 2043 
0:0:17:66, 1972 
0:0:17:82, 1891 
0:0:17:98, 1823 
0:0:17:114, 1757 
0:0:17:130, 1695 
0:0:17:146, 1638 
0:0:17:162, 1599 
0:0:17:177, 1543 
0:0:17:192, 1505 
0:0:17:207, 1465 
0:0:17:223, 1438 
0:0:17:239, 1409 
0:0:17:255, 1396 
0:0:17:271, 1445 
0:0:17:287, 1608 
0:0:17:303, 1972 
0:0:17:318, 2312 
0:0:17:334, 2546 
0:0:17:350, 2738 
0:0:17:365, 2934 
0:0:17:381, 2988 
0:0:17:396, 2980 
0:0:17:412, 2910 
0:0:17:427, 2807 
0:0:17:442, 2687 
0:0:17:458, 2534 
0:0:17:474, 2414 
0:0:17:490, 2270 
0:0:17:506, 2161 
0:0:17:522, 2043 
0:0:17:538, 1971 
0:0:17:554, 1930 
0:0:17:570, 1922 
0:0:17:586, 1941 
0:0:17:602, 1986 
0:0:17:618, 2021 
0:0:17:634, 2040 
0:0:17:649, 2036 
0:0:17:664, 2011 
0:0:17:680, 1970 
0:0:17:696, 1901 
0:0:17:712, 1838 
0:0:17:728, 1754 
0:0:17:744, 1688 
0:0:17:760, 1627 
0:0:17:776, 1570 
0:0:17:792, 1518 
0:0:17:808, 1459 
0:0:17:823, 1429 
0:0:17:839, 1402 
0:0:17:855, 1364 
0:0:17:871, 1343 
0:0:17:886, 1364 
0:0:17:901, 1489 
0:0:17:917, 1823 
0:0:17:933, 2169 
0:0:17:949, 2568 
0:0:17:965, 2748 
0:0:17:981, 2919 
0:0:17:997, 2957 
0:0:18:12, 2908 
0:0:18:28, 2813 
0:0:18:43, 2653 
0:0:18:58, 2524 
0:0:18:74, 2364 
0:0:18:90, 2242 
0:0:18:106, 2100 
0:0:18:122, 1998 
0:0:18:137, 1920 
0:0:18:152, 1873 
0:0:18:168, 1862 
0:0:18:184, 1875 
0:0:18:200, 1912 
0:0:18:215, 1955 
0:0:18:231, 1992 
0:0:18:247, 2014 
0:0:18:263, 2002 
0:0:18:279, 1971 
0:0:18:295, 1925 
0:0:18:311, 1853 
0:0:18:327, 1790 
0:0:18:343, 1742 
0:0:18:358, 1665 
0:0:18:373, 1635 
0:0:18:389, 1565 
0:0:18:405, 1512 
0:0:18:421, 1453 
0:0:18:437, 1413 
0:0:18:452, 1379 
0:0:18:467, 1372 
0:0:18:482, 1460 
0:0:18:497, 1681 
0:0:18:512, 2003 
0:0:18:528, 2427 
0:0:18:543, 2697 
0:0:18:558, 2916 
0:0:18:573, 2952 
0:0:18:588, 2930 
0:0:18:603, 2876 
0:0:18:619, 2745 
0:0:18:635, 2620 
0:0:18:650, 2492 
0:0:18:665, 2366 
0:0:18:680, 2243 
0:0:18:696, 2093 
0:0:18:711, 1999 
0:0:18:727, 1921 
0:0:18:742, 1901 
0:0:18:757, 1917 
0:0:18:773, 1961 
0:0:18:788, 2027 
0:0:18:804, 2063 
0:0:18:820, 2096 
0:0:18:835, 2103 
0:0:18:850, 2101 
0:0:18:865, 2068 
0:0:18:880, 2023 
0:0:18:896, 1968 
0:0:18:911, 1895 
0:0:18:927, 1835 
0:0:18:943, 1763 
0:0:18:959, 1710 
0:0:18:975, 1647 
0:0:18:991, 1600 
0:0:19:7, 1568 
0:0:19:23, 1521 
0:0:19:39, 1488 
0:0:19:54, 1468 
0:0:19:69, 1467 
0:0:19:85, 1557 
0:0:19:101, 1848 
0:0:19:117, 2178 
0:0:19:133, 2508 
0:0:19:149, 2824 
0:0:19:164, 2963 
0:0:19:179, 3019 
0:0:19:195, 2980 
0:0:19:211, 2917 
0:0:19:226, 2805 
0:0:19:242, 2676 
0:0:19:258, 2512 
0:0:19:274, 2384 
0:0:19:289, 2258 
0:0:19:304, 2113 
0:0:19:319, 2018 
0:0:19:335, 1965 
0:0:19:350, 1928 
0:0:19:365, 1937 
0:0:19:381, 1975 
0:0:19:397, 2022 
0:0:19:412, 2064 
0:0:19:427, 2086 
0:0:19:442, 2086 
0:0:19:458, 2054 
0:0:19:474, 2006 
0:0:19:490, 1929 
0:0:19:506, 1844 
0:0:19:522, 1775 
0:0:19:537, 1708 
0:0:19:552, 1630 
0:0:19:568, 1575 
0:0:19:584, 1514 
0:0:19:600, 1472 
0:0:19:615, 1436 
0:0:19:631, 1403 
0:0:19:647, 1374 
0:0:19:663, 1347 
0:0:19:679, 1374 
0:0:19:695, 1567 
0:0:19:711, 1935 
0:0:19:726, 2270 
0:0:19:742, 2618 
0:0:19:757, 2816 
0:0:19:772, 2879 
0:0:19:788, 2851 
0:0:19:804, 2768 
0:0:19:820, 2687 
0:0:19:836, 2596 
0:0:19:852, 2470 
0:0:19:868, 2315 
0:0:19:884, 2195 
0:0:19:899, 2080 
0:0:19:914, 1955 
0:0:19:930, 1881 
0:0:19:946, 1837 
0:0:19:962, 1831 
0:0:19:978, 1859 
0:0:19:993, 1901 
0:0:20:9, 1946 
0:0:20:25, 1978 
0:0:20:41, 1991 
0:0:20:57, 1975 
0:0:20:73, 1937 
0:0:20:89, 1870 
0:0:20:105, 1807 
0:0:20:120, 1722 
0:0:20:136, 1670 
0:0:20:152, 1590 
0:0:20:168, 1529 
0:0:20:184, 1462 
0:0:20:200, 1427 
0:0:20:215, 1383 
0:0:20:230, 1345 
0:0:20:245, 1311 
0:0:20:260, 1281 
0:0:20:276, 1254 
0:0:20:292, 1227 
0:0:20:308, 1217 
0:0:20:324, 1255 
0:0:20:340, 1413 
0:0:20:356, 1723 
0:0:20:372, 2215 
0:0:20:388, 2572 
0:0:20:404, 2898 
0:0:20:419, 3004 
0:0:20:434, 3011 
0:0:20:450, 2934 
0:0:20:465, 2851 
0:0:20:480, 2722 
0:0:20:496, 2584 
0:0:20:512, 2413 
0:0:20:528, 2246 
0:0:20:544, 2119 
0:0:20:560, 1982 
0:0:20:576, 1888 
0:0:20:592, 1855 
0:0:20:608, 1872 
0:0:20:623, 1917 
0:0:20:639, 1957 
0:0:20:655, 2004 
0:0:20:670, 2034 
0:0:20:686, 2039 
0:0:20:701, 2012 
0:0:20:716, 1971 
0:0:20:732, 1899 
0:0:20:748, 1833 
0:0:20:764, 1763 
0:0:20:780, 1676 
0:0:20:796, 1610 
0:0:20:812, 1534 
0:0:20:828, 1494 
0:0:20:844, 1471 
0:0:20:860, 1430 
0:0:20:876, 1398 
0:0:20:892, 1370 
0:0:20:909, 1352 
0:0:20:925, 1332 
0:0:20:940, 1317 
0:0:20:955, 1300 
0:0:20:970, 1303 
0:0:20:986, 1372 
0:0:21:1, 1651 
0:0:21:16, 2008 
0:0:21:31, 2386 
0:0:21:47, 2698 
0:0:21:63, 2931 
0:0:21:79, 3014 
0:0:21:95, 2997 
0:0:21:111, 2891 
0:0:21:127, 2765 
0:0:21:143, 2624 
0:0:21:159, 2439 
0:0:21:174, 2330 
0:0:21:189, 2153 
0:0:21:205, 2025 
0:0:21:220, 1918 
0:0:21:236, 1833 
0:0:21:252, 1813 
0:0:21:267, 1823 
0:0:21:283, 1881 
0:0:21:299, 1945 
0:0:21:315, 2012 
0:0:21:330, 2031 
0:0:21:346, 2050 
0:0:21:362, 2027 
0:0:21:378, 1986 
0:0:21:394, 1916 
0:0:21:409, 1854 
0:0:21:424, 1793 
0:0:21:440, 1721 
0:0:21:456, 1668 
0:0:21:472, 1620 
0:0:21:488, 1577 
0:0:21:503, 1532 
0:0:21:519, 1502 
0:0:21:535, 1469 
0:0:21:551, 1438 
0:0:21:566, 1416 
0:0:21:582, 1408 
0:0:21:598, 1474 
0:0:21:614, 1746 
0:0:21:630, 2181 
0:0:21:645, 2529 
0:0:21:660, 2742 
0:0:21:676, 2961 
0:0:21:691, 3028 
0:0:21:707, 2991 
0:0:21:723, 2892 
0:0:21:739, 2759 
0:0:21:755, 2608 
0:0:21:771, 2413 
0:0:21:787, 2258 
0:0:21:802, 2079 
0:0:21:817, 1955 
0:0:21:833, 1905 
0:0:21:849, 1832 
0:0:21:864, 1802 
0:0:21:879, 1811 
0:0:21:894, 1869 
0:0:21:910, 1938 
0:0:21:926, 2016 
0:0:21:941, 2054 
0:0:21:956, 2061 
0:0:21:972, 2035 
0:0:21:988, 1991 
0:0:22:4, 1916 
0:0:22:19, 1845 
0:0:22:35, 1770 
0:0:22:51, 1680 
0:0:22:67, 1613 
0:0:22:83, 1547 
0:0:22:99, 1489 
0:0:22:115, 1428 
0:0:22:130, 1386 
0:0:22:146, 1349 
0:0:22:162, 1319 
0:0:22:177, 1298 
0:0:22:192, 1313 
0:0:22:208, 1430 
0:0:22:223, 1694 
0:0:22:239, 2062 
0:0:22:255, 2516 
0:0:22:271, 2728 
0:0:22:287, 2938 
0:0:22:303, 3003 
0:0:22:319, 2964 
0:0:22:335, 2898 
0:0:22:350, 2779 
0:0:22:365, 2642 
0:0:22:381, 2458 
0:0:22:397, 2310 
0:0:22:413, 2164 
0:0:22:428, 1997 
0:0:22:444, 1888 
0:0:22:460, 1803 
0:0:22:475, 1784 
0:0:22:490, 1798 
0:0:22:506, 1864 
0:0:22:522, 1930 
0:0:22:538, 2000 
0:0:22:554, 2030 
0:0:22:570, 2030 
0:0:22:585, 2004 
0:0:22:600, 1961 
0:0:22:615, 1891 
0:0:22:631, 1829 
0:0:22:647, 1755 
0:0:22:663, 1699 
0:0:22:679, 1646 
0:0:22:695, 1597 
0:0:22:711, 1542 
0:0:22:727, 1500 
0:0:22:743, 1461 
0:0:22:759, 1417 
0:0:22:774, 1387 
0:0:22:789, 1378 
0:0:22:805, 1478 
0:0:22:821, 1715 
0:0:22:836, 1881 
0:0:22:851, 2250 
0:0:22:866, 2595 
0:0:22:882, 2858 
0:0:22:898, 3033 
0:0:22:913, 3070 
0:0:22:929, 3018 
0:0:22:945, 2889 
0:0:22:961, 2760 
0:0:22:977, 2589 
0:0:22:993, 2451 
0:0:23:9, 2280 
0:0:23:24, 2153 
0:0:23:39, 2043 
0:0:23:54, 1964 
0:0:23:69, 1926 
0:0:23:84, 1925 
0:0:23:100, 1955 
0:0:23:116, 2007 
0:0:23:131, 2049 
0:0:23:147, 2086 
0:0:23:163, 2121 
0:0:23:178, 2132 
0:0:23:193, 2117 
0:0:23:209, 2083 
0:0:23:224, 2022 
0:0:23:240, 1964 
0:0:23:256, 1887 
0:0:23:272, 1825 
0:0:23:287, 1766 
0:0:23:302, 1709 
0:0:23:318, 1656 
0:0:23:334, 1617 
0:0:23:349, 1567 
0:0:23:364, 1519 
0:0:23:380, 1462 
0:0:23:396, 1421 
0:0:23:412, 1375 
0:0:23:427, 1346 
0:0:23:443, 1344 
0:0:23:459, 1475 
0:0:23:475, 1739 
0:0:23:490, 2004 
0:0:23:505, 2369 
0:0:23:521, 2673 
0:0:23:536, 2904 
0:0:23:551, 2985 
0:0:23:567, 2971 
0:0:23:583, 2897 
0:0:23:599, 2792 
0:0:23:611, 2704 
0:0:23:624, 2674 
0:0:23:646, 2492 
0:0:23:662, 2374 
0:0:23:678, 2234 
0:0:23:694, 2132 
0:0:23:710, 2051 
0:0:23:726, 2001 
0:0:23:742, 1990 
0:0:23:757, 2024 
0:0:23:772, 2059 
0:0:23:788, 2122 
0:0:23:804, 2159 
0:0:23:819, 2177 
0:0:23:835, 2176 
0:0:23:850, 2160 
0:0:23:866, 2124 
0:0:23:882, 2058 
0:0:23:898, 1994 
0:0:23:914, 1925 
0:0:23:930, 1855 
0:0:23:946, 1770 
0:0:23:962, 1706 
0:0:23:978, 1633 
0:0:23:993, 1583 
0:0:24:8, 1540 
0:0:24:23, 1507 
0:0:24:38, 1482 
0:0:24:54, 1469 
0:0:24:70, 1457 
0:0:24:86, 1451 
0:0:24:101, 1448 
0:0:24:117, 1454 
0:0:24:133, 1495 
0:0:24:148, 1629 
0:0:24:163, 1887 
0:0:24:178, 2231 
0:0:24:193, 2582 
0:0:24:209, 2873 
0:0:24:225, 3050 
0:0:24:241, 3161 
0:0:24:257, 3175 
0:0:24:273, 3122 
0:0:24:288, 2995 
0:0:24:303, 2901 
0:0:24:318, 2802 
0:0:24:334, 2768 
0:0:24:349, 2666 
0:0:24:364, 2531 
0:0:24:379, 2398 
0:0:24:394, 2247 
0:0:24:410, 2151 
0:0:24:426, 2078 
0:0:24:442, 2067 
0:0:24:457, 2093 
0:0:24:472, 2146 
0:0:24:488, 2216 
0:0:24:503, 2259 
0:0:24:518, 2280 
0:0:24:533, 2277 
0:0:24:548, 2253 
0:0:24:563, 2212 
0:0:24:579, 2158 
0:0:24:595, 2083 
0:0:24:611, 2018 
0:0:24:627, 1955 
0:0:24:643, 1882 
0:0:24:658, 1828 
0:0:24:674, 1779 
0:0:24:689, 1746 
0:0:24:704, 1706 
0:0:24:720, 1671 
0:0:24:736, 1648 
0:0:24:751, 1621 
0:0:24:767, 1598 
0:0:24:782, 1584 
0:0:24:798, 1616 
0:0:24:814, 1742 
0:0:24:830, 1905 
0:0:24:846, 2112 
0:0:24:862, 2477 
0:0:24:878, 2723 
0:0:24:894, 2912 
0:0:24:910, 2983 
0:0:24:925, 2957 
0:0:24:940, 2901 
0:0:24:955, 2797 
0:0:24:971, 2673 
0:0:24:987, 2542 
0:0:25:3, 2373 
0:0:25:18, 2238 
0:0:25:34, 2110 
0:0:25:50, 2001 
0:0:25:65, 1919 
0:0:25:81, 1876 
0:0:25:96, 1872 
0:0:25:111, 1892 
0:0:25:127, 1938 
0:0:25:142, 2004 
0:0:25:158, 2037 
0:0:25:173, 2059 
0:0:25:189, 2070 
0:0:25:204, 2059 
0:0:25:219, 2030 
0:0:25:235, 1985 
0:0:25:251, 1915 
0:0:25:266, 1851 
0:0:25:282, 1786 
0:0:25:298, 1723 
0:0:25:314, 1649 
0:0:25:330, 1621 
0:0:25:346, 1559 
0:0:25:361, 1516 
0:0:25:377, 1488 
0:0:25:392, 1463 
0:0:25:407, 1428 
0:0:25:422, 1406 
0:0:25:438, 1394 
0:0:25:453, 1417 
0:0:25:468, 1528 
0:0:25:483, 1759 
0:0:25:499, 2158 
0:0:25:516, 2477 
0:0:25:532, 2732 
0:0:25:547, 2896 
0:0:25:562, 2967 
0:0:25:578, 2969 
0:0:25:594, 2918 
0:0:25:609, 2826 
0:0:25:624, 2711 
0:0:25:639, 2588 
0:0:25:654, 2462 
0:0:25:669, 2336 
0:0:25:685, 2215 
0:0:25:697, 2158 
0:0:25:708, 2131 
0:0:25:719, 2104 
0:0:25:731, 2104 
0:0:25:748, 2010 
0:0:25:763, 1933 
0:0:25:779, 1913 
0:0:25:794, 1928 
0:0:25:810, 1969 
0:0:25:825, 2011 
0:0:25:841, 2047 
0:0:25:856, 2083 
0:0:25:871, 2100 
0:0:25:886, 2095 
0:0:25:902, 2061 
0:0:25:917, 2015 
0:0:25:933, 1941 
0:0:25:949, 1877 
0:0:25:965, 1798 
0:0:25:981, 1727 
0:0:25:997, 1676 
0:0:26:12, 1629 
0:0:26:28, 1588 
0:0:26:44, 1553 
0:0:26:60, 1516 
0:0:26:76, 1486 
0:0:26:91, 1467 
0:0:26:106, 1462 
0:0:26:121, 1522 
0:0:26:137, 1686 
0:0:26:153, 1955 
0:0:26:168, 2277 
0:0:26:184, 2575 
0:0:26:200, 2801 
0:0:26:216, 2930 
0:0:26:232, 2977 
0:0:26:248, 2981 
0:0:26:263, 2933 
0:0:26:279, 2844 
0:0:26:295, 2700 
0:0:26:311, 2577 
0:0:26:326, 2485 
0:0:26:342, 2363 
0:0:26:358, 2216 
0:0:26:373, 2106 
0:0:26:388, 2016 
0:0:26:403, 1955 
0:0:26:418, 1933 
0:0:26:434, 1933 
0:0:26:450, 1962 
0:0:26:465, 2005 
0:0:26:481, 2055 
0:0:26:497, 2082 
0:0:26:513, 2084 
0:0:26:530, 2064 
0:0:26:546, 2012 
0:0:26:562, 1958 
0:0:26:578, 1882 
0:0:26:593, 1818 
0:0:26:609, 1740 
0:0:26:624, 1695 
0:0:26:639, 1640 
0:0:26:654, 1603 
0:0:26:670, 1547 
0:0:26:686, 1509 
0:0:26:702, 1469 
0:0:26:717, 1445 
0:0:26:733, 1426 
0:0:26:749, 1413 
0:0:26:764, 1408 
0:0:26:779, 1432 
0:0:26:794, 1499 
0:0:26:810, 1754 
0:0:26:826, 1825 
0:0:26:841, 1979 
0:0:26:857, 2309 
0:0:26:872, 2603 
0:0:26:888, 2883 
0:0:26:904, 2973 
0:0:26:919, 2961 
0:0:26:935, 2873 
0:0:26:951, 2768 
0:0:26:966, 2650 
0:0:26:981, 2528 
0:0:26:996, 2408 
0:0:27:12, 2264 
0:0:27:28, 2184 
0:0:27:44, 2093 
0:0:27:59, 2026 
0:0:27:74, 1994 
0:0:27:90, 1998 
0:0:27:105, 2030 
0:0:27:120, 2065 
0:0:27:135, 2113 
0:0:27:151, 2156 
0:0:27:166, 2169 
0:0:27:182, 2161 
0:0:27:198, 2135 
0:0:27:214, 2095 
0:0:27:229, 2043 
0:0:27:245, 2015 
0:0:27:261, 1954 
0:0:27:277, 1892 
0:0:27:293, 1816 
0:0:27:309, 1760 
0:0:27:325, 1723 
0:0:27:340, 1678 
0:0:27:356, 1639 
0:0:27:371, 1608 
0:0:27:386, 1578 
0:0:27:401, 1558 
0:0:27:417, 1541 
0:0:27:433, 1529 
0:0:27:449, 1530 
0:0:27:465, 1561 
0:0:27:481, 1724 
0:0:27:497, 1963 
0:0:27:513, 2325 
0:0:27:529, 2589 
0:0:27:544, 2742 
0:0:27:560, 2867 
0:0:27:575, 2920 
0:0:27:590, 2902 
0:0:27:606, 2810 
0:0:27:621, 2732 
0:0:27:636, 2615 
0:0:27:652, 2494 
0:0:27:668, 2373 
0:0:27:684, 2251 
0:0:27:699, 2137 
0:0:27:715, 2039 
0:0:27:731, 1968 
0:0:27:746, 1933 
0:0:27:761, 1936 
0:0:27:777, 1970 
0:0:27:792, 2020 
0:0:27:807, 2071 
0:0:27:823, 2100 
0:0:27:839, 2121 
0:0:27:855, 2120 
0:0:27:871, 2105 
0:0:27:887, 2071 
0:0:27:903, 2006 
0:0:27:918, 1948 
0:0:27:934, 1869 
0:0:27:950, 1805 
0:0:27:966, 1727 
0:0:27:981, 1671 
0:0:27:996, 1619 
0:0:28:12, 1574 
0:0:28:28, 1533 
0:0:28:43, 1501 
0:0:28:58, 1481 
0:0:28:74, 1460 
0:0:28:89, 1445 
0:0:28:105, 1434 
0:0:28:121, 1431 
0:0:28:137, 1456 
0:0:28:152, 1558 
0:0:28:168, 1769 
0:0:28:183, 2065 
0:0:28:199, 2381 
0:0:28:215, 2524 
0:0:28:231, 2706 
0:0:28:246, 2863 
0:0:28:261, 2951 
0:0:28:277, 2947 
0:0:28:292, 2890 
0:0:28:308, 2767 
0:0:28:323, 2680 
0:0:28:339, 2589 
0:0:28:355, 2436 
0:0:28:370, 2315 
0:0:28:386, 2171 
0:0:28:402, 2068 
0:0:28:418, 1976 
0:0:28:433, 1943 
0:0:28:449, 1945 
0:0:28:465, 1990 
0:0:28:481, 2044 
0:0:28:496, 2080 
0:0:28:511, 2110 
0:0:28:526, 2132 
0:0:28:542, 2129 
0:0:28:558, 2104 
0:0:28:574, 2050 
0:0:28:590, 1997 
0:0:28:606, 1939 
0:0:28:621, 1879 
0:0:28:637, 1834 
0:0:28:652, 1777 
0:0:28:667, 1723 
0:0:28:683, 1673 
0:0:28:698, 1630 
0:0:28:713, 1593 
0:0:28:728, 1571 
0:0:28:744, 1553 
0:0:28:759, 1532 
0:0:28:774, 1512 
0:0:28:790, 1501 
0:0:28:805, 1494 
0:0:28:821, 1494 
0:0:28:837, 1503 
0:0:28:853, 1545 
0:0:28:869, 1737 
0:0:28:884, 2000 
0:0:28:900, 2380 
0:0:28:916, 2642 
0:0:28:932, 2879 
0:0:28:948, 2930 
0:0:28:963, 2932 
0:0:28:978, 2875 
0:0:28:993, 2780 
0:0:29:9, 2636 
0:0:29:25, 2515 
0:0:29:41, 2394 
0:0:29:56, 2276 
0:0:29:71, 2192 
0:0:29:87, 2066 
0:0:29:103, 1989 
0:0:29:119, 1944 
0:0:29:135, 1935 
0:0:29:151, 1961 
0:0:29:167, 2009 
0:0:29:183, 2050 
0:0:29:198, 2107 
0:0:29:213, 2130 
0:0:29:228, 2133 
0:0:29:244, 2116 
0:0:29:260, 2068 
0:0:29:276, 2028 
0:0:29:292, 1953 
0:0:29:307, 1890 
0:0:29:323, 1843 
0:0:29:339, 1795 
0:0:29:355, 1750 
0:0:29:370, 1692 
0:0:29:386, 1638 
0:0:29:401, 1592 
0:0:29:417, 1554 
0:0:29:432, 1517 
0:0:29:447, 1494 
0:0:29:463, 1475 
0:0:29:479, 1455 
0:0:29:494, 1442 
0:0:29:509, 1433 
0:0:29:525, 1435 
0:0:29:541, 1504 
0:0:29:557, 1619 
0:0:29:573, 1942 
0:0:29:589, 2261 
0:0:29:605, 2556 
0:0:29:620, 2779 
0:0:29:635, 2925 
0:0:29:651, 2952 
0:0:29:667, 2911 
0:0:29:683, 2824 
0:0:29:698, 2711 
0:0:29:713, 2585 
0:0:29:729, 2457 
0:0:29:745, 2331 
0:0:29:761, 2208 
0:0:29:776, 2094 
0:0:29:791, 2021 
0:0:29:807, 1979 
0:0:29:822, 1934 
0:0:29:838, 1913 
0:0:29:854, 1912 
0:0:29:869, 1948 
0:0:29:884, 2002 
0:0:29:899, 2057 
0:0:29:914, 2108 
0:0:29:929, 2125 
0:0:29:945, 2112 
0:0:29:961, 2078 
0:0:29:977, 2028 
0:0:29:992, 1972 
0:0:30:7, 1925 
0:0:30:23, 1862 
0:0:30:39, 1783 
0:0:30:55, 1724 
0:0:30:70, 1671 
0:0:30:85, 1612 
0:0:30:101, 1574 
0:0:30:117, 1535 
0:0:30:133, 1514 
0:0:30:149, 1499 
0:0:30:165, 1487 
0:0:30:181, 1479 
0:0:30:197, 1480 
0:0:30:212, 1498 
0:0:30:228, 1581 
0:0:30:242, 1711 
0:0:30:257, 1970 
0:0:30:272, 2277 
0:0:30:288, 2564 
0:0:30:303, 2782 
0:0:30:319, 2926 
0:0:30:335, 2949 
0:0:30:350, 2929 
0:0:30:365, 2852 
0:0:30:381, 2742 
0:0:30:397, 2616 
0:0:30:413, 2451 
0:0:30:429, 2320 
0:0:30:445, 2193 
0:0:30:460, 2076 
0:0:30:475, 1978 
0:0:30:490, 1910 
0:0:30:506, 1888 
0:0:30:521, 1907 
0:0:30:536, 1954 
0:0:30:551, 2014 
0:0:30:567, 2067 
0:0:30:583, 2105 
0:0:30:599, 2116 
0:0:30:614, 2104 
0:0:30:630, 2080 
0:0:30:646, 2021 
0:0:30:662, 1961 
0:0:30:677, 1898 
0:0:30:692, 1834 
0:0:30:707, 1769 
0:0:30:723, 1708 
0:0:30:738, 1653 
0:0:30:754, 1605 
0:0:30:770, 1562 
0:0:30:786, 1523 
0:0:30:802, 1490 
0:0:30:818, 1464 
0:0:30:833, 1458 
0:0:30:849, 1443 
0:0:30:864, 1428 
0:0:30:879, 1418 
0:0:30:895, 1439 
0:0:30:911, 1536 
0:0:30:926, 1818 
0:0:30:941, 2134 
0:0:30:956, 2453 
0:0:30:972, 2711 
0:0:30:988, 2923 
0:0:31:4, 2960 
0:0:31:20, 2925 
0:0:31:35, 2840 
0:0:31:50, 2755 
0:0:31:66, 2626 
0:0:31:82, 2492 
0:0:31:98, 2326 
0:0:31:113, 2197 
0:0:31:128, 2078 
0:0:31:143, 1977 
0:0:31:159, 1906 
0:0:31:175, 1874 
0:0:31:190, 1883 
0:0:31:205, 1924 
0:0:31:221, 1968 
0:0:31:236, 2042 
0:0:31:252, 2077 
0:0:31:267, 2101 
0:0:31:283, 2100 
0:0:31:298, 2078 
0:0:31:314, 2037 
0:0:31:330, 2012 
0:0:31:345, 1955 
0:0:31:361, 1877 
0:0:31:376, 1813 
0:0:31:392, 1751 
0:0:31:407, 1692 
0:0:31:422, 1625 
0:0:31:438, 1576 
0:0:31:454, 1526 
0:0:31:469, 1493 
0:0:31:485, 1473 
0:0:31:500, 1451 
0:0:31:515, 1438 
0:0:31:531, 1425 
0:0:31:546, 1416 
0:0:31:562, 1418 
0:0:31:578, 1462 
0:0:31:594, 1660 
0:0:31:610, 1945 
0:0:31:625, 2284 
0:0:31:640, 2597 
0:0:31:655, 2782 
0:0:31:671, 2966 
0:0:31:687, 3017 
0:0:31:703, 2991 
0:0:31:719, 2935 
0:0:31:735, 2829 
0:0:31:750, 2671 
0:0:31:765, 2539 
0:0:31:781, 2407 
0:0:31:796, 2279 
0:0:31:812, 2156 
0:0:31:827, 2068 
0:0:31:842, 1999 
0:0:31:858, 1935 
0:0:31:873, 1912 
0:0:31:889, 1935 
0:0:31:904, 1982 
0:0:31:919, 2051 
0:0:31:935, 2087 
0:0:31:951, 2115 
0:0:31:967, 2120 
0:0:31:983, 2101 
0:0:31:999, 2066 
0:0:32:15, 2000 
0:0:32:30, 1935 
0:0:32:46, 1866 
0:0:32:62, 1799 
0:0:32:77, 1734 
0:0:32:93, 1673 
0:0:32:108, 1633 
0:0:32:124, 1572 
0:0:32:139, 1541 
0:0:32:154, 1515 
0:0:32:170, 1480 
0:0:32:185, 1458 
0:0:32:201, 1440 
0:0:32:216, 1423 
0:0:32:232, 1416 
0:0:32:247, 1419 
0:0:32:263, 1445 
0:0:32:279, 1604 
0:0:32:295, 1862 
0:0:32:310, 2277 
0:0:32:326, 2517 
0:0:32:342, 2719 
0:0:32:357, 2931 
0:0:32:372, 2994 
0:0:32:387, 2994 
0:0:32:403, 2925 
0:0:32:418, 2817 
0:0:32:433, 2688 
0:0:32:449, 2554 
0:0:32:465, 2418 
0:0:32:481, 2285 
0:0:32:496, 2157 
0:0:32:512, 2036 
0:0:32:527, 1966 
0:0:32:543, 1903 
0:0:32:558, 1882 
0:0:32:574, 1894 
0:0:32:589, 1942 
0:0:32:604, 2008 
0:0:32:620, 2091 
0:0:32:636, 2138 
0:0:32:652, 2157 
0:0:32:668, 2143 
0:0:32:684, 2107 
0:0:32:700, 2056 
0:0:32:716, 1997 
0:0:32:732, 1933 
0:0:32:747, 1869 
0:0:32:763, 1822 
0:0:32:778, 1777 
0:0:32:794, 1721 
0:0:32:809, 1658 
0:0:32:825, 1636 
0:0:32:840, 1604 
0:0:32:855, 1567 
0:0:32:871, 1537 
0:0:32:887, 1509 
0:0:32:903, 1493 
0:0:32:919, 1479 
0:0:32:935, 1475 
0:0:32:950, 1514 
0:0:32:965, 1598 
0:0:32:980, 1812 
0:0:32:996, 2111 
0:0:33:11, 2429 
0:0:33:27, 2753 
0:0:33:43, 2930 
0:0:33:58, 2978 
0:0:33:73, 2951 
0:0:33:89, 2866 
0:0:33:104, 2749 
0:0:33:119, 2616 
0:0:33:135, 2478 
0:0:33:150, 2342 
0:0:33:166, 2241 
0:0:33:182, 2145 
0:0:33:197, 2028 
0:0:33:212, 1936 
0:0:33:228, 1881 
0:0:33:243, 1869 
0:0:33:259, 1910 
0:0:33:274, 1955 
0:0:33:290, 2038 
0:0:33:306, 2094 
0:0:33:321, 2128 
0:0:33:336, 2137 
0:0:33:351, 2120 
0:0:33:367, 2082 
0:0:33:383, 2044 
0:0:33:399, 1986 
0:0:33:415, 1923 
0:0:33:431, 1858 
0:0:33:447, 1779 
0:0:33:463, 1722 
0:0:33:479, 1658 
0:0:33:495, 1615 
0:0:33:510, 1578 
0:0:33:526, 1546 
0:0:33:542, 1519 
0:0:33:558, 1498 
0:0:33:573, 1481 
0:0:33:589, 1469 
0:0:33:604, 1469 
0:0:33:620, 1500 
0:0:33:635, 1667 
0:0:33:651, 1922 
0:0:33:667, 2239 
0:0:33:683, 2610 
0:0:33:699, 2779 
0:0:33:715, 2939 
0:0:33:731, 2975 
0:0:33:747, 2940 
0:0:33:763, 2852 
0:0:33:778, 2735 
0:0:33:794, 2601 
0:0:33:809, 2498 
0:0:33:824, 2396 
0:0:33:840, 2295 
0:0:33:855, 2156 
0:0:33:871, 2037 
0:0:33:887, 1943 
0:0:33:903, 1883 
0:0:33:919, 1870 
0:0:33:934, 1905 
0:0:33:950, 1980 
0:0:33:965, 2043 
0:0:33:981, 2093 
0:0:33:997, 2119 
0:0:34:13, 2117 
0:0:34:29, 2092 
0:0:34:44, 2050 
0:0:34:59, 1995 
0:0:34:74, 1932 
0:0:34:90, 1866 
0:0:34:105, 1801 
0:0:34:121, 1727 
0:0:34:136, 1686 
0:0:34:152, 1623 
0:0:34:168, 1579 
0:0:34:184, 1543 
0:0:34:199, 1513 
0:0:34:214, 1501 
0:0:34:230, 1483 
0:0:34:246, 1472 
0:0:34:262, 1462 
0:0:34:277, 1458 
0:0:34:292, 1456 
0:0:34:308, 1465 
0:0:34:323, 1504 
0:0:34:339, 1597 
0:0:34:355, 1898 
0:0:34:371, 2224 
0:0:34:387, 2546 
0:0:34:403, 2854 
0:0:34:419, 2989 
0:0:34:435, 3043 
0:0:34:451, 3005 
0:0:34:467, 2918 
0:0:34:483, 2772 
0:0:34:499, 2642 
0:0:34:514, 2514 
0:0:34:529, 2348 
0:0:34:545, 2230 
0:0:34:561, 2103 
0:0:34:577, 2031 
0:0:34:593, 1996 
0:0:34:609, 1999 
0:0:34:625, 2022 
0:0:34:640, 2068 
0:0:34:655, 2119 
0:0:34:670, 2158 
0:0:34:686, 2177 
0:0:34:702, 2167 
0:0:34:718, 2135 
0:0:34:733, 2088 
0:0:34:748, 2030 
0:0:34:763, 1965 
0:0:34:778, 1915 
0:0:34:793, 1845 
0:0:34:808, 1780 
0:0:34:824, 1734 
0:0:34:840, 1706 
0:0:34:855, 1680 
0:0:34:870, 1631 
0:0:34:886, 1588 
0:0:34:902, 1545 
0:0:34:918, 1521 
0:0:34:933, 1500 
0:0:34:949, 1491 
0:0:34:965, 1486 
0:0:34:980, 1485 
0:0:34:995, 1483 
0:0:35:10, 1480 
0:0:35:26, 1482 
0:0:35:42, 1504 
0:0:35:58, 1649 
0:0:35:74, 1893 
0:0:35:90, 2296 
0:0:35:105, 2605 
0:0:35:121, 2843 
0:0:35:136, 3020 
0:0:35:151, 3040 
0:0:35:166, 3004 
0:0:35:181, 2921 
0:0:35:197, 2809 
0:0:35:212, 2686 
0:0:35:228, 2560 
0:0:35:244, 2468 
0:0:35:260, 2350 
0:0:35:276, 2240 
0:0:35:292, 2146 
0:0:35:308, 2074 
0:0:35:324, 2035 
0:0:35:340, 2030 
0:0:35:355, 2062 
0:0:35:370, 2097 
0:0:35:386, 2156 
0:0:35:402, 2190 
0:0:35:418, 2203 
0:0:35:433, 2195 
0:0:35:448, 2174 
0:0:35:463, 2131 
0:0:35:478, 2077 
0:0:35:493, 2016 
0:0:35:509, 1937 
0:0:35:525, 1873 
0:0:35:541, 1809 
0:0:35:556, 1734 
0:0:35:571, 1693 
0:0:35:587, 1645 
0:0:35:603, 1605 
0:0:35:619, 1571 
0:0:35:635, 1544 
0:0:35:650, 1525 
0:0:35:665, 1516 
0:0:35:680, 1507 
0:0:35:695, 1504 
0:0:35:710, 1502 
0:0:35:726, 1501 
0:0:35:742, 1499 
0:0:35:758, 1496 
0:0:35:774, 1494 
0:0:35:789, 1505 
0:0:35:805, 1604 
0:0:35:820, 1746 
0:0:35:835, 1948 
0:0:35:851, 2270 
0:0:35:867, 2508 
0:0:35:882, 2772 
0:0:35:897, 2968 
0:0:35:912, 3030 
0:0:35:927, 3013 
0:0:35:943, 2916 
0:0:35:959, 2803 
0:0:35:975, 2644 
0:0:35:991, 2548 
0:0:36:7, 2423 
0:0:36:23, 2304 
0:0:36:39, 2170 
0:0:36:55, 2084 
0:0:36:70, 2036 
0:0:36:86, 2005 
0:0:36:102, 2011 
0:0:36:118, 2057 
0:0:36:134, 2108 
0:0:36:149, 2154 
0:0:36:164, 2182 
0:0:36:180, 2189 
0:0:36:196, 2177 
0:0:36:211, 2144 
0:0:36:227, 2121 
0:0:36:242, 2081 
0:0:36:258, 2020 
0:0:36:273, 1971 
0:0:36:289, 1922 
0:0:36:305, 1856 
0:0:36:320, 1792 
0:0:36:335, 1762 
0:0:36:351, 1692 
0:0:36:367, 1641 
0:0:36:382, 1597 
0:0:36:397, 1560 
0:0:36:413, 1521 
0:0:36:428, 1500 
0:0:36:443, 1486 
0:0:36:459, 1481 
0:0:36:475, 1482 
0:0:36:491, 1482 
0:0:36:507, 1483 
0:0:36:523, 1481 
0:0:36:538, 1478 
0:0:36:554, 1474 
0:0:36:570, 1481 
0:0:36:586, 1568 
0:0:36:602, 1759 
0:0:36:617, 2134 
0:0:36:633, 2462 
0:0:36:648, 2739 
0:0:36:663, 2950 
0:0:36:679, 3012 
0:0:36:695, 3020 
0:0:36:711, 2940 
0:0:36:726, 2832 
0:0:36:742, 2705 
0:0:36:757, 2572 
0:0:36:772, 2442 
0:0:36:788, 2286 
0:0:36:804, 2169 
0:0:36:820, 2068 
0:0:36:836, 2009 
0:0:36:851, 1968 
0:0:36:866, 1949 
0:0:36:882, 1970 
0:0:36:898, 2018 
0:0:36:914, 2079 
0:0:36:930, 2132 
0:0:36:946, 2169 
0:0:36:962, 2172 
0:0:36:978, 2143 
0:0:36:994, 2097 
0:0:37:10, 2025 
0:0:37:25, 1976 
0:0:37:41, 1891 
0:0:37:57, 1825 
0:0:37:72, 1778 
0:0:37:87, 1733 
0:0:37:103, 1679 
0:0:37:118, 1619 
0:0:37:134, 1580 
0:0:37:149, 1547 
0:0:37:165, 1523 
0:0:37:181, 1507 
0:0:37:196, 1499 
0:0:37:211, 1495 
0:0:37:227, 1494 
0:0:37:243, 1495 
0:0:37:259, 1496 
0:0:37:274, 1497 
0:0:37:290, 1499 
0:0:37:306, 1508 
0:0:37:321, 1563 
0:0:37:336, 1625 
0:0:37:351, 1907 
0:0:37:366, 2222 
0:0:37:382, 2539 
0:0:37:398, 2846 
0:0:37:414, 3001 
0:0:37:430, 3032 
0:0:37:446, 2990 
0:0:37:462, 2899 
0:0:37:478, 2747 
0:0:37:494, 2681 
0:0:37:510, 2548 
0:0:37:525, 2416 
0:0:37:541, 2279 
0:0:37:556, 2158 
0:0:37:571, 2032 
0:0:37:587, 1966 
0:0:37:603, 1942 
0:0:37:618, 1959 
0:0:37:634, 2010 
0:0:37:650, 2076 
0:0:37:666, 2138 
0:0:37:681, 2183 
0:0:37:697, 2202 
0:0:37:713, 2198 
0:0:37:728, 2172 
0:0:37:743, 2130 
0:0:37:759, 2074 
0:0:37:775, 2029 
0:0:37:790, 1965 
0:0:37:805, 1902 
0:0:37:821, 1841 
0:0:37:837, 1814 
0:0:37:853, 1762 
0:0:37:869, 1705 
0:0:37:885, 1666 
0:0:37:901, 1634 
0:0:37:917, 1610 
0:0:37:932, 1597 
0:0:37:948, 1582 
0:0:37:964, 1575 
0:0:37:979, 1570 
0:0:37:995, 1568 
0:0:38:11, 1578 
0:0:38:26, 1658 
0:0:38:41, 1828 
0:0:38:56, 2088 
0:0:38:72, 2457 
0:0:38:88, 2710 
0:0:38:104, 2908 
0:0:38:120, 2969 
0:0:38:136, 2979 
0:0:38:152, 2904 
0:0:38:168, 2797 
0:0:38:184, 2667 
0:0:38:200, 2531 
0:0:38:216, 2394 
0:0:38:232, 2228 
0:0:38:248, 2106 
0:0:38:263, 2026 
0:0:38:278, 1943 
0:0:38:293, 1899 
0:0:38:309, 1894 
0:0:38:325, 1913 
0:0:38:340, 1936 
0:0:38:356, 1997 
0:0:38:372, 2080 
0:0:38:388, 2130 
0:0:38:404, 2155 
0:0:38:420, 2146 
0:0:38:436, 2114 
0:0:38:452, 2066 
0:0:38:468, 1988 
0:0:38:484, 1920 
0:0:38:499, 1850 
0:0:38:514, 1783 
0:0:38:529, 1720 
0:0:38:545, 1665 
0:0:38:561, 1617 
0:0:38:576, 1575 
0:0:38:592, 1531 
0:0:38:608, 1505 
0:0:38:624, 1480 
0:0:38:640, 1466 
0:0:38:656, 1459 
0:0:38:671, 1459 
0:0:38:687, 1487 
0:0:38:703, 1593 
0:0:38:719, 1813 
0:0:38:734, 2038 
0:0:38:750, 2282 
0:0:38:765, 2584 
0:0:38:780, 2766 
0:0:38:796, 2921 
0:0:38:811, 2996 
0:0:38:827, 2998 
0:0:38:842, 2965 
0:0:38:858, 2880 
0:0:38:873, 2768 
0:0:38:888, 2637 
0:0:38:904, 2481 
0:0:38:919, 2359 
0:0:38:935, 2242 
0:0:38:951, 2160 
0:0:38:966, 2066 
0:0:38:981, 2014 
0:0:38:997, 1974 
0:0:39:13, 1993 
0:0:39:28, 2038 
0:0:39:44, 2106 
0:0:39:60, 2150 
0:0:39:76, 2177 
0:0:39:92, 2174 
0:0:39:108, 2140 
0:0:39:123, 2094 
0:0:39:138, 2037 
0:0:39:153, 1973 
0:0:39:169, 1908 
0:0:39:185, 1844 
0:0:39:200, 1784 
0:0:39:215, 1729 
0:0:39:231, 1680 
0:0:39:247, 1639 
0:0:39:263, 1604 
0:0:39:279, 1570 
0:0:39:294, 1553 
0:0:39:310, 1534 
0:0:39:325, 1522 
0:0:39:340, 1513 
0:0:39:356, 1514 
0:0:39:372, 1560 
0:0:39:387, 1653 
0:0:39:403, 1936 
0:0:39:419, 2233 
0:0:39:434, 2586 
0:0:39:449, 2794 
0:0:39:464, 2928 
0:0:39:479, 2953 
0:0:39:494, 2916 
0:0:39:510, 2838 
0:0:39:526, 2737 
0:0:39:542, 2648 
0:0:39:557, 2536 
0:0:39:573, 2454 
0:0:39:589, 2319 
0:0:39:604, 2217 
0:0:39:620, 2126 
0:0:39:635, 2059 
0:0:39:651, 2021 
0:0:39:666, 2029 
0:0:39:681, 2065 
0:0:39:696, 2113 
0:0:39:712, 2157 
0:0:39:728, 2184 
0:0:39:744, 2189 
0:0:39:760, 2173 
0:0:39:776, 2148 
0:0:39:791, 2104 
0:0:39:806, 2063 
0:0:39:822, 2005 
0:0:39:838, 1974 
0:0:39:854, 1913 
0:0:39:870, 1839 
0:0:39:885, 1798 
0:0:39:900, 1747 
0:0:39:915, 1689 
0:0:39:930, 1647 
0:0:39:946, 1611 
0:0:39:962, 1577 
0:0:39:978, 1561 
0:0:39:994, 1545 
0:0:40:10, 1535 
0:0:40:26, 1552 
0:0:40:42, 1634 
0:0:40:58, 1872 
0:0:40:74, 2145 
0:0:40:90, 2488 
0:0:40:107, 2703 
0:0:40:123, 2857 
0:0:40:138, 2891 
0:0:40:153, 2874 
0:0:40:168, 2811 
0:0:40:184, 2719 
0:0:40:200, 2614 
0:0:40:215, 2508 
0:0:40:231, 2403 
0:0:40:247, 2303 
0:0:40:263, 2206 
0:0:40:279, 2101 
0:0:40:294, 2054 
0:0:40:309, 2017 
0:0:40:325, 2010 
0:0:40:341, 2014 
0:0:40:357, 2041 
0:0:40:372, 2080 
0:0:40:387, 2108 
0:0:40:402, 2136 
0:0:40:418, 2147 
0:0:40:434, 2139 
0:0:40:450, 2105 
0:0:40:465, 2064 
0:0:40:481, 2006 
0:0:40:497, 1954 
0:0:40:513, 1890 
0:0:40:528, 1840 
0:0:40:544, 1793 
0:0:40:560, 1739 
0:0:40:576, 1700 
0:0:40:592, 1664 
0:0:40:607, 1634 
0:0:40:622, 1610 
0:0:40:638, 1594 
0:0:40:654, 1597 
0:0:40:670, 1677 
0:0:40:686, 1839 
0:0:40:701, 2011 
0:0:40:716, 2270 
0:0:40:731, 2511 
0:0:40:747, 2695 
0:0:40:763, 2816 
0:0:40:779, 2839 
0:0:40:794, 2818 
0:0:40:810, 2754 
0:0:40:825, 2687 
0:0:40:840, 2639 
0:0:40:855, 2512 
0:0:40:871, 2412 
0:0:40:887, 2307 
0:0:40:903, 2188 
0:0:40:919, 2103 
0:0:40:934, 2042 
0:0:40:950, 2005 
0:0:40:965, 2010 
0:0:40:980, 2037 
0:0:40:996, 2066 
0:0:41:11, 2101 
0:0:41:27, 2125 
0:0:41:43, 2131 
0:0:41:59, 2112 
0:0:41:74, 2079 
0:0:41:89, 2036 
0:0:41:104, 1985 
0:0:41:119, 1944 
0:0:41:134, 1887 
0:0:41:150, 1831 
0:0:41:166, 1765 
0:0:41:182, 1718 
0:0:41:198, 1675 
0:0:41:214, 1645 
0:0:41:230, 1601 
0:0:41:246, 1571 
0:0:41:262, 1545 
0:0:41:278, 1531 
0:0:41:294, 1554 
0:0:41:309, 1655 
0:0:41:324, 1793 
0:0:41:339, 1972 
0:0:41:355, 2169 
0:0:41:371, 2469 
0:0:41:387, 2655 
0:0:41:402, 2741 
0:0:41:418, 2748 
0:0:41:434, 2702 
0:0:41:450, 2621 
0:0:41:465, 2520 
0:0:41:480, 2411 
0:0:41:496, 2274 
0:0:41:511, 2165 
0:0:41:526, 2060 
0:0:41:541, 1970 
0:0:41:556, 1913 
0:0:41:572, 1874 
0:0:41:588, 1870 
0:0:41:604, 1905 
0:0:41:620, 1938 
0:0:41:636, 1984 
0:0:41:652, 2026 
0:0:41:668, 2044 
0:0:41:684, 2044 
0:0:41:699, 2028 
0:0:41:715, 2000 
0:0:41:730, 1961 
0:0:41:746, 1914 
0:0:41:762, 1864 
0:0:41:777, 1811 
0:0:41:792, 1757 
0:0:41:808, 1704 
0:0:41:824, 1678 
0:0:41:840, 1655 
0:0:41:856, 1605 
0:0:41:871, 1580 
0:0:41:887, 1552 
0:0:41:903, 1527 
0:0:41:919, 1504 
0:0:41:934, 1483 
0:0:41:949, 1465 
0:0:41:964, 1453 
0:0:41:979, 1473 
0:0:41:995, 1572 
0:0:42:11, 1773 
0:0:42:26, 1975 
0:0:42:41, 2261 
0:0:42:57, 2558 
0:0:42:73, 2726 
0:0:42:89, 2777 
0:0:42:105, 2742 
0:0:42:121, 2636 
0:0:42:137, 2527 
0:0:42:152, 2410 
0:0:42:167, 2293 
0:0:42:183, 2156 
0:0:42:199, 2056 
0:0:42:215, 1975 
0:0:42:230, 1922 
0:0:42:246, 1907 
0:0:42:261, 1914 
0:0:42:277, 1952 
0:0:42:292, 2009 
0:0:42:307, 2070 
0:0:42:323, 2105 
0:0:42:339, 2123 
0:0:42:355, 2141 
0:0:42:371, 2139 
0:0:42:387, 2118 
0:0:42:403, 2073 
0:0:42:419, 2025 
0:0:42:434, 1959 
0:0:42:450, 1905 
0:0:42:466, 1853 
0:0:42:481, 1805 
0:0:42:496, 1761 
0:0:42:511, 1722 
0:0:42:527, 1680 
0:0:42:542, 1654 
0:0:42:558, 1631 
0:0:42:574, 1618 
0:0:42:590, 1608 
0:0:42:606, 1601 
0:0:42:622, 1611 
0:0:42:637, 1694 
0:0:42:652, 1806 
0:0:42:668, 2021 
0:0:42:684, 2268 
0:0:42:700, 2493 
0:0:42:715, 2672 
0:0:42:730, 2744 
0:0:42:746, 2770 
0:0:42:762, 2739 
0:0:42:778, 2669 
0:0:42:793, 2577 
0:0:42:809, 2478 
0:0:42:825, 2375 
0:0:42:842, 2300 
0:0:42:858, 2178 
0:0:42:873, 2112 
0:0:42:888, 2031 
0:0:42:903, 1983 
0:0:42:919, 1965 
0:0:42:934, 1983 
0:0:42:949, 2021 
0:0:42:964, 2065 
0:0:42:981, 2107 
0:0:42:996, 2121 
0:0:43:11, 2119 
0:0:43:26, 2106 
0:0:43:42, 2077 
0:0:43:57, 2038 
0:0:43:72, 1979 
0:0:43:88, 1940 
0:0:43:104, 1887 
0:0:43:120, 1822 
0:0:43:136, 1776 
0:0:43:152, 1734 
0:0:43:168, 1694 
0:0:43:183, 1673 
0:0:43:198, 1653 
0:0:43:214, 1637 
0:0:43:229, 1626 
0:0:43:245, 1619 
0:0:43:260, 1614 
0:0:43:276, 1613 
0:0:43:292, 1632 
0:0:43:308, 1705 
0:0:43:324, 1812 
0:0:43:339, 1962 
0:0:43:355, 2201 
0:0:43:371, 2433 
0:0:43:387, 2617 
0:0:43:403, 2760 
0:0:43:418, 2778 
0:0:43:434, 2744 
0:0:43:450, 2677 
0:0:43:466, 2568 
0:0:43:482, 2477 
0:0:43:498, 2409 
0:0:43:513, 2324 
0:0:43:528, 2244 
0:0:43:544, 2169 
0:0:43:560, 2091 
0:0:43:575, 2055 
0:0:43:591, 2047 
0:0:43:607, 2061 
0:0:43:623, 2083 
0:0:43:639, 2115 
0:0:43:654, 2143 
0:0:43:669, 2157 
0:0:43:684, 2152 
0:0:43:699, 2139 
0:0:43:714, 2109 
0:0:43:729, 2070 
0:0:43:745, 2026 
0:0:43:761, 1978 
0:0:43:776, 1928 
0:0:43:791, 1878 
0:0:43:807, 1829 
0:0:43:823, 1794 
0:0:43:838, 1763 
0:0:43:854, 1717 
0:0:43:870, 1687 
0:0:43:885, 1663 
0:0:43:900, 1650 
0:0:43:915, 1634 
0:0:43:931, 1617 
0:0:43:947, 1598 
0:0:43:963, 1577 
0:0:43:979, 1561 
0:0:43:995, 1558 
0:0:44:11, 1600 
0:0:44:27, 1722 
0:0:44:42, 1923 
0:0:44:57, 2163 
0:0:44:72, 2388 
0:0:44:88, 2558 
0:0:44:104, 2652 
0:0:44:119, 2685 
0:0:44:134, 2664 
0:0:44:150, 2584 
0:0:44:165, 2498 
0:0:44:180, 2407 
0:0:44:196, 2295 
0:0:44:212, 2212 
0:0:44:229, 2134 
0:0:44:245, 2064 
0:0:44:261, 2007 
0:0:44:277, 1968 
0:0:44:292, 1955 
0:0:44:307, 1962 
0:0:44:322, 1981 
0:0:44:338, 2007 
0:0:44:353, 2036 
0:0:44:368, 2068 
0:0:44:384, 2085 
0:0:44:400, 2082 
0:0:44:416, 2056 
0:0:44:432, 2021 
0:0:44:448, 1966 
0:0:44:464, 1914 
0:0:44:480, 1846 
0:0:44:496, 1792 
0:0:44:511, 1754 
0:0:44:527, 1706 
0:0:44:543, 1653 
0:0:44:559, 1617 
0:0:44:575, 1579 
0:0:44:590, 1556 
0:0:44:605, 1540 
0:0:44:620, 1531 
0:0:44:636, 1525 
0:0:44:651, 1524 
0:0:44:666, 1525 
0:0:44:682, 1522 
0:0:44:697, 1520 
0:0:44:713, 1517 
0:0:44:728, 1527 
0:0:44:744, 1583 
0:0:44:760, 1769 
0:0:44:776, 1998 
0:0:44:792, 2246 
0:0:44:808, 2459 
0:0:44:823, 2624 
0:0:44:839, 2661 
0:0:44:855, 2680 
0:0:44:871, 2635 
0:0:44:887, 2556 
0:0:44:903, 2427 
0:0:44:919, 2350 
0:0:44:935, 2251 
0:0:44:951, 2157 
0:0:44:967, 2050 
0:0:44:983, 1974 
0:0:44:999, 1911 
0:0:45:13, 1872 
0:0:45:29, 1865 
0:0:45:45, 1888 
0:0:45:60, 1932 
0:0:45:75, 1982 
0:0:45:91, 2025 
0:0:45:107, 2049 
0:0:45:122, 2054 
0:0:45:138, 2042 
0:0:45:154, 2016 
0:0:45:169, 1975 
0:0:45:185, 1925 
0:0:45:201, 1856 
0:0:45:217, 1788 
0:0:45:233, 1736 
0:0:45:249, 1688 
0:0:45:265, 1636 
0:0:45:281, 1609 
0:0:45:296, 1572 
0:0:45:311, 1554 
0:0:45:326, 1541 
0:0:45:341, 1536 
0:0:45:357, 1523 
0:0:45:373, 1517 
0:0:45:389, 1513 
0:0:45:405, 1523 
0:0:45:420, 1602 
0:0:45:436, 1763 
0:0:45:452, 2069 
0:0:45:468, 2330 
0:0:45:484, 2545 
0:0:45:500, 2724 
0:0:45:516, 2756 
0:0:45:531, 2740 
0:0:45:546, 2682 
0:0:45:561, 2598 
0:0:45:577, 2493 
0:0:45:593, 2393 
0:0:45:609, 2291 
0:0:45:624, 2191 
0:0:45:640, 2092 
0:0:45:655, 2025 
0:0:45:670, 1930 
0:0:45:686, 1881 
0:0:45:701, 1863 
0:0:45:716, 1878 
0:0:45:731, 1918 
0:0:45:747, 1955 
0:0:45:762, 2004 
0:0:45:777, 2039 
0:0:45:792, 2055 
0:0:45:808, 2051 
0:0:45:824, 2035 
0:0:45:839, 2010 
0:0:45:855, 1968 
0:0:45:870, 1918 
0:0:45:886, 1854 
0:0:45:902, 1802 
0:0:45:918, 1741 
0:0:45:934, 1696 
0:0:45:950, 1665 
0:0:45:966, 1628 
0:0:45:982, 1596 
0:0:45:997, 1567 
0:0:46:12, 1544 
0:0:46:27, 1526 
0:0:46:43, 1547 
0:0:46:59, 1649 
0:0:46:75, 1853 
0:0:46:91, 2119 
0:0:46:107, 2441 
0:0:46:123, 2591 
0:0:46:138, 2737 
0:0:46:154, 2776 
0:0:46:170, 2754 
0:0:46:186, 2690 
0:0:46:202, 2602 
0:0:46:218, 2503 
0:0:46:234, 2373 
0:0:46:249, 2270 
0:0:46:264, 2194 
0:0:46:280, 2095 
0:0:46:296, 2007 
0:0:46:311, 1937 
0:0:46:326, 1900 
0:0:46:342, 1882 
0:0:46:358, 1885 
0:0:46:374, 1908 
0:0:46:390, 1954 
0:0:46:406, 2005 
0:0:46:422, 2052 
0:0:46:437, 2068 
0:0:46:453, 2061 
0:0:46:468, 2037 
0:0:46:483, 1998 
0:0:46:498, 1948 
0:0:46:513, 1894 
0:0:46:529, 1836 
0:0:46:545, 1779 
0:0:46:560, 1726 
0:0:46:576, 1675 
0:0:46:592, 1616 
0:0:46:607, 1574 
0:0:46:623, 1538 
0:0:46:639, 1509 
0:0:46:655, 1480 
0:0:46:671, 1475 
0:0:46:686, 1527 
0:0:46:701, 1683 
0:0:46:716, 1936 
0:0:46:732, 2228 
0:0:46:748, 2541 
0:0:46:763, 2633 
0:0:46:779, 2764 
0:0:46:795, 2787 
0:0:46:810, 2764 
0:0:46:827, 2718 
0:0:46:843, 2656 
0:0:46:859, 2557 
0:0:46:875, 2424 
0:0:46:890, 2318 
0:0:46:906, 2216 
0:0:46:922, 2088 
0:0:46:937, 1999 
0:0:46:952, 1928 
0:0:46:968, 1882 
0:0:46:984, 1871 
0:0:47:0, 1893 
0:0:47:16, 1936 
0:0:47:32, 1989 
0:0:47:47, 2046 
0:0:47:63, 2071 
0:0:47:79, 2075 
0:0:47:95, 2057 
0:0:47:111, 2024 
0:0:47:127, 1969 
0:0:47:143, 1917 
0:0:47:159, 1864 
0:0:47:174, 1824 
0:0:47:189, 1772 
0:0:47:205, 1724 
0:0:47:220, 1680 
0:0:47:235, 1648 
0:0:47:251, 1601 
0:0:47:267, 1569 
0:0:47:283, 1540 
0:0:47:299, 1515 
0:0:47:314, 1527 
0:0:47:330, 1560 
0:0:47:346, 1707 
0:0:47:362, 1954 
0:0:47:378, 2171 
0:0:47:394, 2444 
0:0:47:409, 2651 
0:0:47:424, 2783 
0:0:47:439, 2808 
0:0:47:455, 2772 
0:0:47:470, 2673 
0:0:47:486, 2573 
0:0:47:502, 2467 
0:0:47:518, 2360 
0:0:47:534, 2232 
0:0:47:550, 2135 
0:0:47:566, 2042 
0:0:47:581, 1978 
0:0:47:596, 1920 
0:0:47:611, 1895 
0:0:47:626, 1906 
0:0:47:642, 1944 
0:0:47:657, 1996 
0:0:47:672, 2049 
0:0:47:687, 2087 
0:0:47:703, 2097 
0:0:47:718, 2105 
0:0:47:734, 2100 
0:0:47:750, 2076 
0:0:47:766, 2027 
0:0:47:782, 1977 
0:0:47:797, 1937 
0:0:47:813, 1881 
0:0:47:828, 1854 
0:0:47:844, 1813 
0:0:47:859, 1761 
0:0:47:874, 1711 
0:0:47:889, 1665 
0:0:47:905, 1613 
0:0:47:921, 1578 
0:0:47:937, 1549 
0:0:47:952, 1521 
0:0:47:967, 1512 
0:0:47:982, 1550 
0:0:47:998, 1684 
0:0:48:14, 1922 
0:0:48:29, 2212 
0:0:48:45, 2483 
0:0:48:61, 2736 
0:0:48:77, 2818 
0:0:48:93, 2810 
0:0:48:108, 2745 
0:0:48:123, 2653 
0:0:48:139, 2548 
0:0:48:154, 2439 
0:0:48:169, 2332 
0:0:48:185, 2228 
0:0:48:201, 2103 
0:0:48:216, 2036 
0:0:48:232, 1977 
0:0:48:247, 1919 
0:0:48:264, 1892 
0:0:48:279, 1907 
0:0:48:295, 1949 
0:0:48:310, 2002 
0:0:48:326, 2049 
0:0:48:341, 2078 
0:0:48:356, 2086 
0:0:48:372, 2073 
0:0:48:388, 2052 
0:0:48:403, 2011 
0:0:48:418, 1963 
0:0:48:434, 1923 
0:0:48:449, 1869 
0:0:48:464, 1815 
0:0:48:480, 1749 
0:0:48:496, 1697 
0:0:48:512, 1651 
0:0:48:528, 1601 
0:0:48:543, 1567 
0:0:48:559, 1541 
0:0:48:574, 1520 
0:0:48:589, 1501 
0:0:48:605, 1490 
0:0:48:621, 1494 
0:0:48:637, 1547 
0:0:48:653, 1760 
0:0:48:669, 2039 
0:0:48:685, 2345 
0:0:48:701, 2665 
0:0:48:717, 2809 
0:0:48:732, 2893 
0:0:48:748, 2892 
0:0:48:764, 2838 
0:0:48:779, 2774 
0:0:48:795, 2672 
0:0:48:811, 2563 
0:0:48:826, 2509 
0:0:48:842, 2456 
0:0:48:858, 2354 
0:0:48:873, 2256 
0:0:48:889, 2161 
0:0:48:905, 2057 
0:0:48:920, 1999 
0:0:48:935, 1968 
0:0:48:951, 1979 
0:0:48:967, 2016 
0:0:48:983, 2071 
0:0:48:999, 2107 
0:0:49:14, 2124 
0:0:49:30, 2120 
0:0:49:45, 2097 
0:0:49:60, 2060 
0:0:49:75, 2000 
0:0:49:91, 1944 
0:0:49:107, 1884 
0:0:49:123, 1809 
0:0:49:138, 1751 
0:0:49:154, 1708 
0:0:49:170, 1654 
0:0:49:185, 1607 
0:0:49:201, 1558 
0:0:49:217, 1527 
0:0:49:232, 1509 
0:0:49:248, 1489 
0:0:49:264, 1475 
0:0:49:279, 1465 
0:0:49:294, 1458 
0:0:49:310, 1461 
0:0:49:326, 1485 
0:0:49:342, 1592 
0:0:49:358, 1811 
0:0:49:374, 2112 
0:0:49:389, 2348 
0:0:49:404, 2674 
0:0:49:420, 2865 
0:0:49:436, 2912 
0:0:49:451, 2907 
0:0:49:467, 2849 
0:0:49:483, 2757 
0:0:49:499, 2649 
0:0:49:514, 2507 
0:0:49:529, 2395 
0:0:49:544, 2287 
0:0:49:560, 2183 
0:0:49:576, 2089 
0:0:49:592, 2008 
0:0:49:608, 1959 
0:0:49:623, 1943 
0:0:49:639, 1954 
0:0:49:654, 1993 
0:0:49:670, 2043 
0:0:49:686, 2089 
0:0:49:702, 2125 
0:0:49:718, 2130 
0:0:49:733, 2120 
0:0:49:748, 2091 
0:0:49:763, 2060 
0:0:49:779, 1997 
0:0:49:795, 1938 
0:0:49:810, 1878 
0:0:49:825, 1833 
0:0:49:841, 1818 
0:0:49:856, 1776 
0:0:49:871, 1720 
0:0:49:887, 1658 
0:0:49:902, 1615 
0:0:49:918, 1580 
0:0:49:934, 1546 
0:0:49:949, 1527 
0:0:49:964, 1514 
0:0:49:979, 1508 
0:0:49:994, 1506 
0:0:50:9, 1507 
0:0:50:25, 1513 
0:0:50:40, 1542 
0:0:50:56, 1637 
0:0:50:72, 1837 
0:0:50:88, 2119 
0:0:50:104, 2485 
0:0:50:120, 2714 
0:0:50:136, 2874 
0:0:50:152, 2912 
0:0:50:168, 2882 
0:0:50:183, 2804 
0:0:50:198, 2727 
0:0:50:213, 2612 
0:0:50:228, 2494 
0:0:50:244, 2377 
0:0:50:260, 2291 
0:0:50:276, 2181 
0:0:50:292, 2054 
0:0:50:308, 1973 
0:0:50:323, 1932 
0:0:50:338, 1913 
0:0:50:354, 1919 
0:0:50:370, 1959 
0:0:50:386, 2033 
0:0:50:402, 2088 
0:0:50:417, 2125 
0:0:50:433, 2137 
0:0:50:448, 2125 
0:0:50:463, 2103 
0:0:50:478, 2045 
0:0:50:493, 1989 
0:0:50:509, 1928 
0:0:50:525, 1849 
0:0:50:540, 1788 
0:0:50:556, 1730 
0:0:50:572, 1676 
0:0:50:587, 1628 
0:0:50:603, 1586 
0:0:50:619, 1544 
0:0:50:634, 1520 
0:0:50:650, 1500 
0:0:50:666, 1489 
0:0:50:681, 1478 
0:0:50:696, 1473 
0:0:50:712, 1472 
0:0:50:728, 1485 
0:0:50:744, 1550 
0:0:50:760, 1773 
0:0:50:776, 2058 
0:0:50:792, 2292 
0:0:50:807, 2575 
0:0:50:822, 2780 
0:0:50:837, 2866 
0:0:50:853, 2911 
0:0:50:869, 2912 
0:0:50:885, 2878 
0:0:50:900, 2794 
0:0:50:915, 2685 
0:0:50:930, 2534 
0:0:50:945, 2402 
0:0:50:961, 2280 
0:0:50:976, 2162 
0:0:50:991, 2052 
0:0:51:7, 1936 
0:0:51:23, 1867 
0:0:51:38, 1855 
0:0:51:54, 1884 
0:0:51:70, 1942 
0:0:51:86, 2009 
0:0:51:101, 2054 
0:0:51:116, 2095 
0:0:51:132, 2113 
0:0:51:147, 2106 
0:0:51:162, 2078 
0:0:51:177, 2033 
0:0:51:193, 1963 
0:0:51:209, 1902 
0:0:51:225, 1823 
0:0:51:241, 1762 
0:0:51:256, 1717 
0:0:51:272, 1660 
0:0:51:287, 1610 
0:0:51:302, 1575 
0:0:51:318, 1535 
0:0:51:334, 1518 
0:0:51:350, 1482 
0:0:51:365, 1461 
0:0:51:380, 1451 
0:0:51:396, 1439 
0:0:51:411, 1434 
0:0:51:427, 1430 
0:0:51:443, 1437 
0:0:51:459, 1504 
0:0:51:475, 1668 
0:0:51:490, 1943 
0:0:51:505, 2190 
0:0:51:521, 2510 
0:0:51:536, 2813 
0:0:51:552, 2962 
0:0:51:568, 2987 
0:0:51:584, 2924 
0:0:51:600, 2819 
0:0:51:616, 2732 
0:0:51:631, 2607 
0:0:51:646, 2481 
0:0:51:662, 2327 
0:0:51:677, 2236 
0:0:51:693, 2124 
0:0:51:709, 2025 
0:0:51:725, 1950 
0:0:51:741, 1908 
0:0:51:757, 1911 
0:0:51:773, 1951 
0:0:51:789, 1994 
0:0:51:805, 2068 
0:0:51:821, 2113 
0:0:51:837, 2126 
0:0:51:852, 2133 
0:0:51:867, 2116 
0:0:51:883, 2068 
0:0:51:899, 2017 
0:0:51:914, 1972 
0:0:51:930, 1893 
0:0:51:946, 1828 
0:0:51:962, 1763 
0:0:51:978, 1689 
0:0:51:994, 1634 
0:0:52:10, 1571 
0:0:52:26, 1528 
0:0:52:41, 1491 
0:0:52:56, 1461 
0:0:52:71, 1438 
0:0:52:86, 1426 
0:0:52:101, 1417 
0:0:52:117, 1411 
0:0:52:133, 1408 
0:0:52:149, 1410 
0:0:52:165, 1428 
0:0:52:180, 1510 
0:0:52:196, 1705 
0:0:52:212, 2009 
0:0:52:228, 2435 
0:0:52:243, 2723 
0:0:52:259, 2901 
0:0:52:275, 3014 
0:0:52:291, 3030 
0:0:52:307, 2983 
0:0:52:322, 2942 
0:0:52:337, 2894 
0:0:52:352, 2781 
0:0:52:367, 2661 
0:0:52:383, 2540 
0:0:52:399, 2394 
0:0:52:415, 2337 
0:0:52:430, 2227 
0:0:52:446, 2125 
0:0:52:462, 2024 
0:0:52:478, 1977 
0:0:52:494, 1967 
0:0:52:510, 2001 
0:0:52:526, 2036 
0:0:52:542, 2086 
0:0:52:557, 2133 
0:0:52:572, 2148 
0:0:52:587, 2141 
0:0:52:602, 2112 
0:0:52:617, 2053 
0:0:52:633, 1995 
0:0:52:649, 1913 
0:0:52:664, 1847 
0:0:52:680, 1783 
0:0:52:696, 1723 
0:0:52:712, 1668 
0:0:52:727, 1617 
0:0:52:743, 1584 
0:0:52:759, 1539 
0:0:52:775, 1510 
0:0:52:790, 1490 
0:0:52:805, 1478 
0:0:52:820, 1472 
0:0:52:835, 1470 
0:0:52:851, 1469 
0:0:52:867, 1468 
0:0:52:882, 1467 
0:0:52:897, 1469 
0:0:52:912, 1504 
0:0:52:928, 1626 
0:0:52:944, 1796 
0:0:52:959, 2101 
0:0:52:975, 2429 
0:0:52:991, 2708 
0:0:53:7, 2923 
0:0:53:22, 3000 
0:0:53:38, 2997 
0:0:53:54, 2935 
0:0:53:70, 2835 
0:0:53:86, 2686 
0:0:53:101, 2593 
0:0:53:117, 2470 
0:0:53:133, 2352 
0:0:53:148, 2267 
0:0:53:164, 2158 
0:0:53:179, 2040 
0:0:53:194, 1971 
0:0:53:210, 1941 
0:0:53:225, 1937 
0:0:53:241, 1970 
0:0:53:256, 2023 
0:0:53:272, 2076 
0:0:53:287, 2115 
0:0:53:302, 2132 
0:0:53:318, 2127 
0:0:53:334, 2109 
0:0:53:349, 2068 
0:0:53:365, 2029 
0:0:53:381, 1970 
0:0:53:396, 1905 
0:0:53:411, 1823 
0:0:53:427, 1774 
0:0:53:442, 1712 
0:0:53:458, 1641 
0:0:53:474, 1591 
0:0:53:489, 1539 
0:0:53:504, 1505 
0:0:53:520, 1478 
0:0:53:536, 1463 
0:0:53:552, 1444 
0:0:53:567, 1438 
0:0:53:583, 1432 
0:0:53:598, 1430 
0:0:53:614, 1430 
0:0:53:629, 1431 
0:0:53:645, 1446 
0:0:53:661, 1550 
0:0:53:677, 1759 
0:0:53:693, 2069 
0:0:53:709, 2405 
0:0:53:724, 2695 
0:0:53:739, 2854 
0:0:53:755, 2993 
0:0:53:771, 3012 
0:0:53:787, 2974 
0:0:53:803, 2861 
0:0:53:819, 2773 
0:0:53:834, 2711 
0:0:53:850, 2582 
0:0:53:866, 2487 
0:0:53:883, 2331 
0:0:53:899, 2213 
0:0:53:915, 2101 
0:0:53:931, 1988 
0:0:53:947, 1933 
0:0:53:962, 1920 
0:0:53:977, 1938 
0:0:53:993, 1991 
0:0:54:9, 2075 
0:0:54:25, 2137 
0:0:54:40, 2177 
0:0:54:56, 2191 
0:0:54:72, 2174 
0:0:54:88, 2124 
0:0:54:104, 2071 
0:0:54:120, 1994 
0:0:54:135, 1931 
0:0:54:151, 1867 
0:0:54:167, 1805 
0:0:54:183, 1748 
0:0:54:198, 1695 
0:0:54:213, 1649 
0:0:54:229, 1609 
0:0:54:245, 1575 
0:0:54:261, 1544 
0:0:54:277, 1529 
0:0:54:292, 1515 
0:0:54:308, 1505 
0:0:54:323, 1501 
0:0:54:340, 1498 
0:0:54:356, 1492 
0:0:54:371, 1493 
0:0:54:387, 1522 
0:0:54:403, 1627 
0:0:54:418, 1842 
0:0:54:433, 2064 
0:0:54:448, 2382 
0:0:54:464, 2720 
0:0:54:480, 2916 
0:0:54:496, 2979 
0:0:54:512, 2964 
0:0:54:527, 2914 
0:0:54:543, 2784 
0:0:54:559, 2660 
0:0:54:575, 2497 
0:0:54:591, 2400 
0:0:54:607, 2242 
0:0:54:623, 2123 
0:0:54:639, 2012 
0:0:54:655, 1917 
0:0:54:670, 1884 
0:0:54:685, 1891 
0:0:54:700, 1936 
0:0:54:715, 2001 
0:0:54:730, 2084 
0:0:54:745, 2130 
0:0:54:760, 2148 
0:0:54:776, 2140 
0:0:54:792, 2110 
0:0:54:808, 2078 
0:0:54:824, 2038 
0:0:54:840, 2008 
0:0:54:856, 1947 
0:0:54:872, 1866 
0:0:54:888, 1802 
0:0:54:903, 1739 
0:0:54:918, 1679 
0:0:54:933, 1623 
0:0:54:949, 1564 
0:0:54:965, 1526 
0:0:54:981, 1497 
0:0:54:996, 1475 
0:0:55:11, 1459 
0:0:55:27, 1451 
0:0:55:42, 1442 
0:0:55:58, 1436 
0:0:55:74, 1434 
0:0:55:90, 1448 
0:0:55:105, 1556 
0:0:55:121, 1772 
0:0:55:136, 2085 
0:0:55:151, 2426 
0:0:55:167, 2776 
0:0:55:184, 2972 
0:0:55:200, 3034 
0:0:55:215, 3027 
0:0:55:231, 2985 
0:0:55:247, 2892 
0:0:55:262, 2774 
0:0:55:278, 2613 
0:0:55:294, 2488 
0:0:55:310, 2366 
0:0:55:326, 2280 
0:0:55:342, 2170 
0:0:55:358, 2072 
0:0:55:373, 1997 
0:0:55:388, 1955 
0:0:55:403, 1953 
0:0:55:418, 2000 
0:0:55:433, 2042 
0:0:55:448, 2087 
0:0:55:463, 2135 
0:0:55:479, 2164 
0:0:55:495, 2165 
0:0:55:511, 2140 
0:0:55:527, 2085 
0:0:55:542, 2026 
0:0:55:557, 1961 
0:0:55:572, 1894 
0:0:55:587, 1844 
0:0:55:602, 1779 
0:0:55:617, 1703 
0:0:55:633, 1648 
0:0:55:648, 1610 
0:0:55:664, 1565 
0:0:55:680, 1520 
0:0:55:696, 1491 
0:0:55:712, 1473 
0:0:55:727, 1461 
0:0:55:743, 1454 
0:0:55:759, 1453 
0:0:55:775, 1452 
0:0:55:790, 1453 
0:0:55:805, 1453 
0:0:55:820, 1454 
0:0:55:836, 1457 
0:0:55:851, 1477 
0:0:55:866, 1540 
0:0:55:882, 1726 
0:0:55:898, 2111 
0:0:55:913, 2457 
0:0:55:928, 2754 
0:0:55:943, 2980 
0:0:55:958, 3085 
0:0:55:973, 3065 
0:0:55:989, 2991 
0:0:56:5, 2881 
0:0:56:21, 2756 
0:0:56:37, 2624 
0:0:56:52, 2496 
0:0:56:68, 2372 
0:0:56:83, 2253 
0:0:56:98, 2141 
0:0:56:114, 2050 
0:0:56:130, 1989 
0:0:56:146, 1965 
0:0:56:162, 1980 
0:0:56:178, 2040 
0:0:56:194, 2098 
0:0:56:210, 2146 
0:0:56:225, 2174 
0:0:56:241, 2179 
0:0:56:257, 2156 
0:0:56:273, 2127 
0:0:56:288, 2074 
0:0:56:304, 1993 
0:0:56:319, 1923 
0:0:56:334, 1886 
0:0:56:350, 1816 
0:0:56:366, 1733 
0:0:56:382, 1687 
0:0:56:398, 1616 
0:0:56:413, 1579 
0:0:56:428, 1533 
0:0:56:443, 1485 
0:0:56:459, 1461 
0:0:56:475, 1443 
0:0:56:490, 1425 
0:0:56:505, 1414 
0:0:56:521, 1408 
0:0:56:537, 1407 
0:0:56:552, 1409 
0:0:56:567, 1412 
0:0:56:583, 1414 
0:0:56:599, 1414 
0:0:56:615, 1411 
0:0:56:631, 1417 
0:0:56:647, 1497 
0:0:56:663, 1692 
0:0:56:678, 1921 
0:0:56:694, 2284 
0:0:56:710, 2632 
0:0:56:726, 2899 
0:0:56:742, 3079 
0:0:56:758, 3119 
0:0:56:774, 3081 
0:0:56:789, 2990 
0:0:56:804, 2869 
0:0:56:819, 2734 
0:0:56:835, 2665 
0:0:56:851, 2531 
0:0:56:867, 2400 
0:0:56:882, 2307 
0:0:56:898, 2190 
0:0:56:913, 2089 
0:0:56:928, 2015 
0:0:56:943, 1976 
0:0:56:959, 1993 
0:0:56:975, 2042 
0:0:56:991, 2105 
0:0:57:7, 2176 
0:0:57:22, 2211 
0:0:57:37, 2222 
0:0:57:53, 2199 
0:0:57:69, 2156 
0:0:57:85, 2115 
0:0:57:101, 2068 
0:0:57:117, 2000 
0:0:57:133, 1914 
0:0:57:149, 1848 
0:0:57:165, 1785 
0:0:57:181, 1728 
0:0:57:197, 1677 
0:0:57:213, 1622 
0:0:57:229, 1585 
0:0:57:244, 1557 
0:0:57:259, 1536 
0:0:57:274, 1525 
0:0:57:289, 1520 
0:0:57:305, 1516 
0:0:57:321, 1515 
0:0:57:336, 1517 
0:0:57:352, 1519 
0:0:57:368, 1520 
0:0:57:384, 1518 
0:0:57:399, 1527 
0:0:57:415, 1614 
0:0:57:431, 1804 
0:0:57:447, 2176 
0:0:57:463, 2420 
0:0:57:479, 2708 
0:0:57:494, 2869 
0:0:57:509, 3029 
0:0:57:525, 3038 
0:0:57:540, 2989 
0:0:57:556, 2892 
0:0:57:571, 2767 
0:0:57:587, 2629 
0:0:57:603, 2488 
0:0:57:619, 2315 
0:0:57:634, 2173 
0:0:57:649, 2079 
0:0:57:665, 1942 
0:0:57:681, 1867 
0:0:57:696, 1835 
0:0:57:711, 1836 
0:0:57:726, 1870 
0:0:57:741, 1936 
0:0:57:757, 2013 
0:0:57:773, 2094 
0:0:57:789, 2131 
0:0:57:805, 2138 
0:0:57:821, 2118 
0:0:57:837, 2110 
0:0:57:853, 2078 
0:0:57:869, 2022 
0:0:57:885, 1943 
0:0:57:901, 1876 
0:0:57:917, 1826 
0:0:57:933, 1760 
0:0:57:948, 1695 
0:0:57:963, 1634 
0:0:57:978, 1578 
0:0:57:994, 1529 
0:0:58:10, 1479 
0:0:58:26, 1449 
0:0:58:42, 1427 
0:0:58:58, 1407 
0:0:58:74, 1398 
0:0:58:90, 1396 
0:0:58:106, 1396 
0:0:58:121, 1398 
0:0:58:136, 1401 
0:0:58:152, 1410 
0:0:58:167, 1455 
0:0:58:182, 1597 
0:0:58:197, 1953 
0:0:58:212, 2319 
0:0:58:228, 2663 
0:0:58:244, 2994 
0:0:58:260, 3111 
0:0:58:276, 3124 
0:0:58:292, 3065 
0:0:58:307, 2957 
0:0:58:323, 2824 
0:0:58:339, 2788 
0:0:58:355, 2681 
0:0:58:371, 2537 
0:0:58:387, 2397 
0:0:58:402, 2261 
0:0:58:417, 2134 
0:0:58:432, 2000 
0:0:58:447, 1924 
0:0:58:462, 1889 
0:0:58:478, 1897 
0:0:58:494, 1944 
0:0:58:509, 2013 
0:0:58:524, 2084 
0:0:58:539, 2147 
0:0:58:555, 2165 
0:0:58:571, 2160 
0:0:58:587, 2131 
0:0:58:603, 2081 
0:0:58:619, 2021 
0:0:58:634, 1938 
0:0:58:649, 1868 
0:0:58:664, 1801 
0:0:58:679, 1736 
0:0:58:695, 1675 
0:0:58:711, 1606 
0:0:58:727, 1559 
0:0:58:743, 1519 
0:0:58:759, 1495 
0:0:58:774, 1467 
0:0:58:790, 1448 
0:0:58:806, 1436 
0:0:58:822, 1432 
0:0:58:837, 1431 
0:0:58:853, 1432 
0:0:58:869, 1436 
0:0:58:885, 1438 
0:0:58:900, 1440 
0:0:58:915, 1454 
0:0:58:931, 1526 
0:0:58:947, 1783 
0:0:58:963, 2027 
0:0:58:978, 2490 
0:0:58:993, 2740 
0:0:59:9, 3062 
0:0:59:25, 3172 
0:0:59:41, 3185 
0:0:59:57, 3118 
0:0:59:72, 3012 
0:0:59:88, 2882 
0:0:59:104, 2778 
0:0:59:119, 2636 
0:0:59:135, 2499 
0:0:59:150, 2335 
0:0:59:166, 2273 
0:0:59:182, 2185 
0:0:59:198, 2084 
0:0:59:214, 2014 
0:0:59:230, 1981 
0:0:59:245, 2001 
0:0:59:260, 2052 
0:0:59:275, 2114 
0:0:59:290, 2169 
0:0:59:306, 2209 
0:0:59:322, 2215 
0:0:59:337, 2200 
0:0:59:353, 2165 
0:0:59:368, 2128 
0:0:59:383, 2067 
0:0:59:398, 1999 
0:0:59:413, 1930 
0:0:59:429, 1845 
0:0:59:445, 1782 
0:0:59:461, 1724 
0:0:59:477, 1657 
0:0:59:493, 1622 
0:0:59:508, 1580 
0:0:59:523, 1545 
0:0:59:539, 1512 
0:0:59:555, 1498 
0:0:59:570, 1487 
0:0:59:586, 1483 
0:0:59:601, 1485 
0:0:59:616, 1489 
0:0:59:631, 1494 
0:0:59:646, 1496 
0:0:59:662, 1494 
0:0:59:678, 1494 
0:0:59:694, 1524 
0:0:59:710, 1644 
0:0:59:725, 1885 
0:0:59:741, 2218 
0:0:59:757, 2561 
0:0:59:773, 2844 
0:0:59:788, 3014 
0:0:59:804, 3103 
0:0:59:820, 3130 
0:0:59:835, 3125 
0:0:59:850, 3085 
0:0:59:866, 2964 
0:0:59:882, 2839 
0:0:59:898, 2673 
0:0:59:914, 2541 
0:0:59:930, 2386 
0:0:59:946, 2297 
0:0:59:961, 2187 
0:0:59:976, 2095 
0:0:59:992, 2019 
0:1:0:7, 2004 
0:1:0:23, 2016 
0:1:0:38, 2055 
0:1:0:54, 2106 
0:1:0:69, 2165 
0:1:0:84, 2193 
0:1:0:99, 2199 
0:1:0:115, 2172 
0:1:0:131, 2128 
0:1:0:147, 2073 
0:1:0:162, 2012 
0:1:0:177, 1947 
0:1:0:193, 1866 
0:1:0:209, 1800 
0:1:0:225, 1737 
0:1:0:240, 1705 
0:1:0:256, 1633 
0:1:0:271, 1583 
0:1:0:286, 1541 
0:1:0:302, 1509 
0:1:0:317, 1490 
0:1:0:332, 1477 
0:1:0:347, 1466 
0:1:0:363, 1461 
0:1:0:379, 1461 
0:1:0:395, 1463 
0:1:0:411, 1464 
0:1:0:427, 1466 
0:1:0:443, 1472 
0:1:0:459, 1508 
0:1:0:475, 1677 
0:1:0:491, 1944 
0:1:0:507, 2282 
0:1:0:523, 2607 
0:1:0:538, 2861 
0:1:0:553, 3033 
0:1:0:568, 3073 
0:1:0:584, 3039 
0:1:0:600, 2952 
0:1:0:616, 2835 
0:1:0:632, 2703 
0:1:0:647, 2594 
0:1:0:663, 2461 
0:1:0:678, 2330 
0:1:0:693, 2206 
0:1:0:708, 2093 
0:1:0:724, 2003 
0:1:0:739, 1950 
0:1:0:755, 1938 
0:1:0:770, 1960 
0:1:0:786, 2017 
0:1:0:801, 2089 
0:1:0:817, 2158 
0:1:0:833, 2186 
0:1:0:848, 2222 
0:1:0:864, 2231 
0:1:0:880, 2213 
0:1:0:895, 2173 
0:1:0:911, 2103 
0:1:0:926, 2038 
0:1:0:942, 1968 
0:1:0:958, 1898 
0:1:0:973, 1816 
0:1:0:988, 1755 
0:1:1:3, 1700 
0:1:1:18, 1652 
0:1:1:34, 1601 
0:1:1:50, 1569 
0:1:1:66, 1542 
0:1:1:81, 1526 
0:1:1:97, 1509 
0:1:1:113, 1497 
0:1:1:129, 1491 
0:1:1:145, 1492 
0:1:1:160, 1512 
0:1:1:176, 1603 
0:1:1:192, 1873 
0:1:1:208, 2183 
0:1:1:224, 2501 
0:1:1:239, 2761 
0:1:1:254, 2916 
0:1:1:269, 2994 
0:1:1:285, 3011 
0:1:1:300, 2961 
0:1:1:316, 2865 
0:1:1:333, 2806 
0:1:1:348, 2676 
0:1:1:363, 2542 
0:1:1:378, 2410 
0:1:1:394, 2249 
0:1:1:410, 2129 
0:1:1:426, 1997 
0:1:1:442, 1936 
0:1:1:458, 1883 
0:1:1:473, 1882 
0:1:1:488, 1916 
0:1:1:503, 1976 
0:1:1:519, 2044 
0:1:1:535, 2103 
0:1:1:550, 2141 
0:1:1:566, 2151 
0:1:1:582, 2132 
0:1:1:598, 2080 
0:1:1:613, 2039 
0:1:1:629, 1962 
0:1:1:645, 1895 
0:1:1:661, 1830 
0:1:1:675, 1783 
0:1:1:690, 1721 
0:1:1:705, 1663 
0:1:1:721, 1612 
0:1:1:736, 1568 
0:1:1:752, 1534 
0:1:1:767, 1506 
0:1:1:783, 1485 
0:1:1:799, 1471 
0:1:1:815, 1462 
0:1:1:830, 1460 
0:1:1:846, 1456 
0:1:1:862, 1456 
0:1:1:877, 1459 
0:1:1:892, 1484 
0:1:1:908, 1584 
0:1:1:924, 1803 
0:1:1:939, 2122 
0:1:1:954, 2382 
0:1:1:969, 2623 
0:1:1:985, 2925 
0:1:2:1, 3068 
0:1:2:17, 3090 
0:1:2:33, 3024 
0:1:2:49, 2924 
0:1:2:64, 2803 
0:1:2:80, 2674 
0:1:2:96, 2514 
0:1:2:112, 2421 
0:1:2:127, 2300 
0:1:2:142, 2185 
0:1:2:158, 2087 
0:1:2:173, 2017 
0:1:2:188, 1982 
0:1:2:204, 1988 
0:1:2:220, 2039 
0:1:2:235, 2096 
0:1:2:251, 2150 
0:1:2:267, 2188 
0:1:2:283, 2202 
0:1:2:299, 2192 
0:1:2:314, 2161 
0:1:2:329, 2138 
0:1:2:345, 2111 
0:1:2:361, 2051 
0:1:2:377, 1985 
0:1:2:392, 1917 
0:1:2:407, 1833 
0:1:2:422, 1768 
0:1:2:438, 1705 
0:1:2:453, 1648 
0:1:2:468, 1598 
0:1:2:484, 1545 
0:1:2:500, 1515 
0:1:2:516, 1495 
0:1:2:532, 1485 
0:1:2:548, 1480 
0:1:2:563, 1479 
0:1:2:578, 1481 
0:1:2:594, 1488 
0:1:2:610, 1492 
0:1:2:626, 1500 
0:1:2:641, 1522 
0:1:2:656, 1608 
0:1:2:672, 1872 
0:1:2:687, 2189 
0:1:2:703, 2521 
0:1:2:719, 2800 
0:1:2:735, 3020 
0:1:2:750, 3078 
0:1:2:766, 3089 
0:1:2:782, 3045 
0:1:2:798, 2955 
0:1:2:814, 2807 
0:1:2:829, 2744 
0:1:2:844, 2619 
0:1:2:860, 2497 
0:1:2:875, 2350 
0:1:2:890, 2240 
0:1:2:906, 2140 
0:1:2:922, 2049 
0:1:2:938, 2014 
0:1:2:954, 2016 
0:1:2:969, 2039 
0:1:2:985, 2087 
0:1:3:1, 2154 
0:1:3:17, 2191 
0:1:3:32, 2208 
0:1:3:48, 2201 
0:1:3:64, 2164 
0:1:3:80, 2116 
0:1:3:95, 2056 
0:1:3:110, 1992 
0:1:3:125, 1926 
0:1:3:140, 1861 
0:1:3:156, 1800 
0:1:3:172, 1757 
0:1:3:187, 1716 
0:1:3:203, 1663 
0:1:3:219, 1617 
0:1:3:234, 1571 
0:1:3:250, 1544 
0:1:3:266, 1524 
0:1:3:281, 1518 
0:1:3:296, 1515 
0:1:3:311, 1515 
0:1:3:327, 1517 
0:1:3:342, 1520 
0:1:3:357, 1521 
0:1:3:372, 1520 
0:1:3:388, 1526 
0:1:3:404, 1573 
0:1:3:420, 1714 
0:1:3:436, 2040 
0:1:3:452, 2359 
0:1:3:468, 2713 
0:1:3:484, 2930 
0:1:3:499, 3002 
0:1:3:515, 3014 
0:1:3:531, 2962 
0:1:3:547, 2865 
0:1:3:563, 2743 
0:1:3:578, 2611 
0:1:3:593, 2512 
0:1:3:609, 2350 
0:1:3:625, 2227 
0:1:3:641, 2082 
0:1:3:657, 1979 
0:1:3:673, 1910 
0:1:3:689, 1878 
0:1:3:705, 1888 
0:1:3:720, 1929 
0:1:3:736, 1988 
0:1:3:752, 2046 
0:1:3:768, 2089 
0:1:3:784, 2108 
0:1:3:800, 2107 
0:1:3:815, 2085 
0:1:3:830, 2066 
0:1:3:845, 2033 
0:1:3:861, 1978 
0:1:3:877, 1915 
0:1:3:892, 1849 
0:1:3:907, 1785 
0:1:3:923, 1722 
0:1:3:939, 1665 
0:1:3:954, 1611 
0:1:3:969, 1564 
0:1:3:985, 1516 
0:1:4:0, 1493 
0:1:4:15, 1475 
0:1:4:31, 1456 
0:1:4:47, 1445 
0:1:4:62, 1440 
0:1:4:77, 1440 
0:1:4:92, 1444 
0:1:4:107, 1450 
0:1:4:123, 1455 
0:1:4:138, 1463 
0:1:4:154, 1491 
0:1:4:170, 1634 
0:1:4:186, 1880 
0:1:4:202, 2210 
0:1:4:218, 2464 
0:1:4:234, 2814 
0:1:4:250, 3009 
0:1:4:265, 3067 
0:1:4:280, 3045 
0:1:4:295, 2989 
0:1:4:311, 2848 
0:1:4:327, 2750 
0:1:4:342, 2647 
0:1:4:357, 2511 
0:1:4:373, 2377 
0:1:4:389, 2218 
0:1:4:404, 2103 
0:1:4:419, 2028 
0:1:4:434, 1955 
0:1:4:450, 1923 
0:1:4:466, 1943 
0:1:4:482, 1999 
0:1:4:498, 2051 
0:1:4:513, 2119 
0:1:4:528, 2171 
0:1:4:544, 2202 
0:1:4:560, 2202 
0:1:4:576, 2172 
0:1:4:592, 2128 
0:1:4:607, 2071 
0:1:4:622, 2023 
0:1:4:637, 1940 
0:1:4:653, 1876 
0:1:4:668, 1814 
0:1:4:683, 1758 
0:1:4:699, 1694 
0:1:4:715, 1650 
0:1:4:731, 1613 
0:1:4:745, 1588 
0:1:4:761, 1561 
0:1:4:776, 1540 
0:1:4:792, 1526 
0:1:4:807, 1517 
0:1:4:823, 1519 
0:1:4:838, 1531 
0:1:4:854, 1558 
0:1:4:870, 1730 
0:1:4:886, 1986 
0:1:4:902, 2375 
0:1:4:917, 2658 
0:1:4:932, 2882 
0:1:4:947, 2994 
0:1:4:963, 2985 
0:1:4:978, 2916 
0:1:4:993, 2802 
0:1:5:9, 2674 
0:1:5:25, 2539 
0:1:5:40, 2405 
0:1:5:56, 2307 
0:1:5:72, 2180 
0:1:5:88, 2033 
0:1:5:104, 1939 
0:1:5:119, 1877 
0:1:5:134, 1856 
0:1:5:150, 1876 
0:1:5:166, 1928 
0:1:5:182, 1995 
0:1:5:198, 2055 
0:1:5:214, 2100 
0:1:5:229, 2118 
0:1:5:245, 2110 
0:1:5:261, 2079 
0:1:5:276, 2032 
0:1:5:291, 1991 
0:1:5:307, 1913 
0:1:5:323, 1850 
0:1:5:338, 1803 
0:1:5:354, 1742 
0:1:5:369, 1686 
0:1:5:384, 1634 
0:1:5:400, 1579 
0:1:5:416, 1543 
0:1:5:432, 1511 
0:1:5:448, 1483 
0:1:5:463, 1467 
0:1:5:479, 1451 
0:1:5:495, 1443 
0:1:5:511, 1472 
0:1:5:527, 1585 
0:1:5:542, 1820 
0:1:5:558, 2231 
0:1:5:574, 2557 
0:1:5:590, 2758 
0:1:5:605, 2969 
0:1:5:620, 3040 
0:1:5:636, 3031 
0:1:5:652, 2963 
0:1:5:668, 2886 
0:1:5:683, 2759 
0:1:5:698, 2630 
0:1:5:714, 2502 
0:1:5:730, 2380 
0:1:5:746, 2263 
0:1:5:762, 2127 
0:1:5:778, 2036 
0:1:5:793, 1973 
0:1:5:808, 1950 
0:1:5:824, 1952 
0:1:5:839, 1958 
0:1:5:854, 1996 
0:1:5:869, 2035 
0:1:5:885, 2086 
0:1:5:901, 2127 
0:1:5:916, 2147 
0:1:5:931, 2143 
0:1:5:947, 2107 
0:1:5:963, 2061 
0:1:5:979, 1988 
0:1:5:995, 1924 
0:1:6:11, 1858 
0:1:6:27, 1809 
0:1:6:43, 1731 
0:1:6:59, 1675 
0:1:6:74, 1626 
0:1:6:90, 1582 
0:1:6:105, 1547 
0:1:6:120, 1518 
0:1:6:135, 1497 
0:1:6:151, 1480 
0:1:6:166, 1466 
0:1:6:181, 1453 
0:1:6:196, 1449 
0:1:6:211, 1464 
0:1:6:226, 1542 
0:1:6:241, 1796 
0:1:6:256, 2025 
0:1:6:272, 2362 
0:1:6:288, 2595 
0:1:6:303, 2839 
0:1:6:318, 3001 
0:1:6:334, 3030 
0:1:6:350, 3028 
0:1:6:366, 2965 
0:1:6:381, 2864 
0:1:6:396, 2744 
0:1:6:411, 2618 
0:1:6:427, 2465 
0:1:6:442, 2348 
0:1:6:458, 2207 
0:1:6:474, 2105 
0:1:6:490, 2022 
0:1:6:505, 1992 
0:1:6:521, 1958 
0:1:6:537, 1966 
0:1:6:553, 2004 
0:1:6:569, 2054 
0:1:6:585, 2099 
0:1:6:601, 2129 
0:1:6:616, 2136 
0:1:6:631, 2116 
0:1:6:646, 2079 
0:1:6:662, 2028 
0:1:6:678, 1954 
0:1:6:694, 1891 
0:1:6:710, 1827 
0:1:6:725, 1780 
0:1:6:740, 1719 
0:1:6:756, 1662 
0:1:6:772, 1612 
0:1:6:788, 1557 
0:1:6:805, 1528 
0:1:6:821, 1497 
0:1:6:837, 1484 
0:1:6:852, 1464 
0:1:6:867, 1450 
0:1:6:882, 1440 
0:1:6:897, 1433 
0:1:6:912, 1431 
0:1:6:928, 1429 
0:1:6:944, 1429 
0:1:6:960, 1444 
0:1:6:976, 1489 
0:1:6:991, 1590 
0:1:7:7, 1697 
0:1:7:22, 1908 
0:1:7:37, 2159 
0:1:7:53, 2493 
0:1:7:69, 2822 
0:1:7:84, 2994 
0:1:7:99, 3035 
0:1:7:114, 3001 
0:1:7:130, 2940 
0:1:7:145, 2829 
0:1:7:160, 2669 
0:1:7:176, 2537 
0:1:7:192, 2411 
0:1:7:208, 2289 
0:1:7:224, 2148 
0:1:7:240, 2051 
0:1:7:255, 1963 
0:1:7:271, 1932 
0:1:7:287, 1948 
0:1:7:303, 1994 
0:1:7:318, 2052 
0:1:7:334, 2067 
0:1:7:350, 2105 
0:1:7:366, 2141 
0:1:7:382, 2153 
0:1:7:397, 2135 
0:1:7:412, 2110 
0:1:7:428, 2049 
0:1:7:443, 1991 
0:1:7:459, 1912 
0:1:7:475, 1849 
0:1:7:491, 1773 
0:1:7:507, 1717 
0:1:7:523, 1664 
0:1:7:539, 1616 
0:1:7:554, 1576 
0:1:7:569, 1544 
0:1:7:584, 1523 
0:1:7:600, 1510 
0:1:7:615, 1503 
0:1:7:630, 1502 
0:1:7:645, 1503 
0:1:7:661, 1508 
0:1:7:677, 1514 
0:1:7:693, 1520 
0:1:7:709, 1552 
0:1:7:724, 1648 
0:1:7:740, 1852 
0:1:7:756, 2066 
0:1:7:772, 2459 
0:1:7:787, 2667 
0:1:7:802, 2877 
0:1:7:818, 3006 
0:1:7:834, 3024 
0:1:7:849, 3001 
0:1:7:865, 2923 
0:1:7:881, 2811 
0:1:7:896, 2649 
0:1:7:911, 2514 
0:1:7:926, 2382 
0:1:7:942, 2253 
0:1:7:958, 2132 
0:1:7:973, 2025 
0:1:7:988, 1942 
0:1:8:4, 1895 
0:1:8:19, 1894 
0:1:8:34, 1933 
0:1:8:49, 1993 
0:1:8:65, 2054 
0:1:8:80, 2108 
0:1:8:96, 2125 
0:1:8:111, 2121 
0:1:8:126, 2096 
0:1:8:142, 2052 
0:1:8:158, 1995 
0:1:8:174, 1947 
0:1:8:190, 1878 
0:1:8:205, 1810 
0:1:8:221, 1745 
0:1:8:236, 1683 
0:1:8:251, 1625 
0:1:8:266, 1563 
0:1:8:281, 1531 
0:1:8:297, 1488 
0:1:8:313, 1461 
0:1:8:329, 1445 
0:1:8:344, 1431 
0:1:8:360, 1423 
0:1:8:376, 1421 
0:1:8:392, 1422 
0:1:8:408, 1424 
0:1:8:423, 1433 
0:1:8:438, 1459 
0:1:8:454, 1605 
0:1:8:470, 1854 
0:1:8:485, 2182 
0:1:8:500, 2514 
0:1:8:515, 2724 
0:1:8:531, 2940 
0:1:8:546, 3018 
0:1:8:562, 3025 
0:1:8:577, 2958 
0:1:8:592, 2851 
0:1:8:608, 2757 
0:1:8:624, 2624 
0:1:8:639, 2493 
0:1:8:655, 2337 
0:1:8:671, 2218 
0:1:8:687, 2104 
0:1:8:703, 2015 
0:1:8:719, 1956 
0:1:8:734, 1936 
0:1:8:750, 1943 
0:1:8:766, 1982 
0:1:8:781, 2042 
0:1:8:797, 2106 
0:1:8:813, 2147 
0:1:8:829, 2176 
0:1:8:844, 2190 
0:1:8:860, 2181 
0:1:8:875, 2148 
0:1:8:891, 2097 
0:1:8:907, 2021 
0:1:8:923, 1955 
0:1:8:939, 1870 
0:1:8:954, 1803 
0:1:8:969, 1753 
0:1:8:985, 1691 
0:1:9:0, 1634 
0:1:9:15, 1596 
0:1:9:31, 1551 
0:1:9:47, 1516 
0:1:9:63, 1488 
0:1:9:79, 1462 
0:1:9:95, 1447 
0:1:9:111, 1435 
0:1:9:127, 1428 
0:1:9:143, 1422 
0:1:9:159, 1425 
0:1:9:174, 1468 
0:1:9:189, 1604 
0:1:9:204, 1858 
0:1:9:220, 2188 
0:1:9:235, 2438 
0:1:9:250, 2721 
0:1:9:265, 2939 
0:1:9:280, 3017 
0:1:9:296, 3012 
0:1:9:312, 2945 
0:1:9:328, 2840 
0:1:9:344, 2747 
0:1:9:360, 2682 
0:1:9:375, 2551 
0:1:9:391, 2393 
0:1:9:407, 2273 
0:1:9:422, 2159 
0:1:9:437, 2081 
0:1:9:452, 1996 
0:1:9:468, 1936 
0:1:9:484, 1931 
0:1:9:500, 1973 
0:1:9:516, 2028 
0:1:9:532, 2087 
0:1:9:549, 2141 
0:1:9:565, 2161 
0:1:9:581, 2157 
0:1:9:597, 2120 
0:1:9:612, 2083 
0:1:9:628, 2040 
0:1:9:643, 1976 
0:1:9:658, 1907 
0:1:9:673, 1822 
0:1:9:688, 1756 
0:1:9:704, 1693 
0:1:9:720, 1622 
0:1:9:735, 1571 
0:1:9:750, 1537 
0:1:9:765, 1500 
0:1:9:781, 1472 
0:1:9:796, 1450 
0:1:9:812, 1434 
0:1:9:828, 1427 
0:1:9:844, 1423 
0:1:9:859, 1419 
0:1:9:875, 1419 
0:1:9:890, 1422 
0:1:9:905, 1443 
0:1:9:920, 1561 
0:1:9:936, 1782 
0:1:9:952, 2182 
0:1:9:967, 2514 
0:1:9:983, 2783 
0:1:9:999, 2979 
0:1:10:14, 3037 
0:1:10:30, 3014 
0:1:10:45, 2958 
0:1:10:61, 2881 
0:1:10:77, 2758 
0:1:10:93, 2592 
0:1:10:109, 2459 
0:1:10:124, 2298 
0:1:10:139, 2207 
0:1:10:154, 2094 
0:1:10:170, 2020 
0:1:10:186, 1948 
0:1:10:201, 1909 
0:1:10:216, 1910 
0:1:10:231, 1947 
0:1:10:246, 2006 
0:1:10:262, 2084 
0:1:10:278, 2120 
0:1:10:294, 2148 
0:1:10:309, 2151 
0:1:10:325, 2138 
0:1:10:341, 2115 
0:1:10:356, 2070 
0:1:10:371, 2014 
0:1:10:386, 1953 
0:1:10:402, 1889 
0:1:10:417, 1825 
0:1:10:432, 1763 
0:1:10:447, 1692 
0:1:10:463, 1642 
0:1:10:478, 1599 
0:1:10:493, 1573 
0:1:10:509, 1548 
0:1:10:525, 1536 
0:1:10:541, 1525 
0:1:10:556, 1523 
0:1:10:571, 1525 
0:1:10:586, 1531 
0:1:10:601, 1538 
0:1:10:616, 1542 
0:1:10:631, 1551 
0:1:10:647, 1583 
0:1:10:663, 1721 
0:1:10:679, 1944 
0:1:10:695, 2315 
0:1:10:711, 2536 
0:1:10:727, 2826 
0:1:10:743, 2975 
0:1:10:759, 3005 
0:1:10:775, 2965 
0:1:10:791, 2875 
0:1:10:807, 2757 
0:1:10:822, 2625 
0:1:10:837, 2559 
0:1:10:853, 2428 
0:1:10:869, 2270 
0:1:10:885, 2152 
0:1:10:901, 2026 
0:1:10:917, 1970 
0:1:10:933, 1921 
0:1:10:949, 1929 
0:1:10:965, 1985 
0:1:10:981, 2048 
0:1:10:997, 2121 
0:1:11:13, 2158 
0:1:11:28, 2170 
0:1:11:43, 2158 
0:1:11:58, 2117 
0:1:11:73, 2071 
0:1:11:88, 2030 
0:1:11:104, 1957 
0:1:11:120, 1911 
0:1:11:136, 1849 
0:1:11:152, 1790 
0:1:11:168, 1722 
0:1:11:184, 1674 
0:1:11:200, 1631 
0:1:11:216, 1584 
0:1:11:232, 1554 
0:1:11:247, 1530 
0:1:11:263, 1513 
0:1:11:279, 1501 
0:1:11:294, 1496 
0:1:11:309, 1498 
0:1:11:325, 1507 
0:1:11:340, 1528 
0:1:11:356, 1631 
0:1:11:372, 1908 
0:1:11:388, 2214 
0:1:11:404, 2521 
0:1:11:420, 2821 
0:1:11:436, 2978 
0:1:11:451, 3013 
0:1:11:467, 2966 
0:1:11:483, 2873 
0:1:11:499, 2756 
0:1:11:515, 2599 
0:1:11:530, 2504 
0:1:11:545, 2412 
0:1:11:561, 2292 
0:1:11:577, 2154 
0:1:11:593, 2064 
0:1:11:609, 2004 
0:1:11:625, 1982 
0:1:11:640, 1997 
0:1:11:657, 2055 
0:1:11:673, 2110 
0:1:11:688, 2159 
0:1:11:704, 2189 
0:1:11:720, 2196 
0:1:11:735, 2185 
0:1:11:751, 2155 
0:1:11:766, 2121 
0:1:11:781, 2066 
0:1:11:796, 1989 
0:1:11:812, 1927 
0:1:11:827, 1897 
0:1:11:843, 1868 
0:1:11:859, 1805 
0:1:11:875, 1762 
0:1:11:891, 1715 
0:1:11:907, 1681 
0:1:11:923, 1641 
0:1:11:939, 1605 
0:1:11:954, 1586 
0:1:11:969, 1564 
0:1:11:984, 1546 
0:1:11:999, 1531 
0:1:12:14, 1517 
0:1:12:30, 1527 
0:1:12:45, 1603 
0:1:12:61, 1782 
0:1:12:77, 2125 
0:1:12:92, 2419 
0:1:12:107, 2610 
0:1:12:123, 2815 
0:1:12:139, 2908 
0:1:12:155, 2921 
0:1:12:170, 2883 
0:1:12:185, 2802 
0:1:12:201, 2724 
0:1:12:217, 2609 
0:1:12:232, 2495 
0:1:12:247, 2358 
0:1:12:263, 2254 
0:1:12:279, 2159 
0:1:12:294, 2077 
0:1:12:309, 2020 
0:1:12:325, 1994 
0:1:12:340, 1995 
0:1:12:355, 2019 
0:1:12:370, 2064 
0:1:12:386, 2101 
0:1:12:402, 2145 
0:1:12:418, 2176 
0:1:12:434, 2178 
0:1:12:450, 2160 
0:1:12:465, 2125 
0:1:12:480, 2077 
0:1:12:496, 2020 
0:1:12:512, 1943 
0:1:12:528, 1882 
0:1:12:544, 1824 
0:1:12:560, 1770 
0:1:12:576, 1722 
0:1:12:592, 1691 
0:1:12:608, 1648 
0:1:12:624, 1619 
0:1:12:640, 1594 
0:1:12:656, 1574 
0:1:12:672, 1559 
0:1:12:688, 1545 
0:1:12:703, 1536 
0:1:12:718, 1529 
0:1:12:733, 1542 
0:1:12:749, 1615 
0:1:12:764, 1788 
0:1:12:779, 2050 
0:1:12:794, 2270 
0:1:12:809, 2480 
0:1:12:825, 2710 
0:1:12:841, 2814 
0:1:12:856, 2916 
0:1:12:872, 2932 
0:1:12:888, 2887 
0:1:12:903, 2826 
0:1:12:918, 2723 
0:1:12:933, 2608 
0:1:12:948, 2492 
0:1:12:964, 2349 
0:1:12:980, 2239 
0:1:12:996, 2163 
0:1:13:12, 2072 
0:1:13:27, 2019 
0:1:13:43, 1978 
0:1:13:59, 1973 
0:1:13:75, 2001 
0:1:13:90, 2049 
0:1:13:105, 2100 
0:1:13:121, 2142 
0:1:13:137, 2166 
0:1:13:152, 2168 
0:1:13:167, 2156 
0:1:13:182, 2123 
0:1:13:197, 2101 
0:1:13:213, 2050 
0:1:13:229, 1992 
0:1:13:245, 1947 
0:1:13:261, 1888 
0:1:13:276, 1830 
0:1:13:293, 1777 
0:1:13:309, 1730 
0:1:13:324, 1709 
0:1:13:339, 1682 
0:1:13:354, 1658 
0:1:13:369, 1632 
0:1:13:385, 1614 
0:1:13:399, 1599 
0:1:13:414, 1584 
0:1:13:430, 1574 
0:1:13:446, 1563 
0:1:13:462, 1557 
0:1:13:478, 1560 
0:1:13:493, 1608 
0:1:13:508, 1744 
0:1:13:524, 1909 
0:1:13:540, 2252 
0:1:13:555, 2454 
0:1:13:571, 2676 
0:1:13:587, 2856 
0:1:13:603, 2886 
0:1:13:618, 2878 
0:1:13:633, 2822 
0:1:13:648, 2754 
0:1:13:664, 2674 
0:1:13:680, 2557 
0:1:13:696, 2437 
0:1:13:712, 2320 
0:1:13:728, 2208 
0:1:13:744, 2103 
0:1:13:760, 2011 
0:1:13:776, 1942 
0:1:13:791, 1919 
0:1:13:807, 1917 
0:1:13:822, 1945 
0:1:13:838, 1957 
0:1:13:854, 1998 
0:1:13:869, 2058 
0:1:13:884, 2109 
0:1:13:899, 2135 
0:1:13:915, 2150 
0:1:13:931, 2141 
0:1:13:946, 2113 
0:1:13:962, 2069 
0:1:13:978, 2017 
0:1:13:994, 1959 
0:1:14:10, 1899 
0:1:14:26, 1841 
0:1:14:41, 1801 
0:1:14:57, 1740 
0:1:14:72, 1695 
0:1:14:88, 1654 
0:1:14:103, 1628 
0:1:14:118, 1597 
0:1:14:134, 1578 
0:1:14:149, 1558 
0:1:14:165, 1539 
0:1:14:180, 1530 
0:1:14:196, 1531 
0:1:14:212, 1557 
0:1:14:228, 1624 
0:1:14:244, 1803 
0:1:14:260, 2065 
0:1:14:276, 2353 
0:1:14:291, 2608 
0:1:14:306, 2808 
0:1:14:321, 2885 
0:1:14:336, 2907 
0:1:14:352, 2900 
0:1:14:367, 2858 
0:1:14:383, 2771 
0:1:14:399, 2663 
0:1:14:415, 2578 
0:1:14:430, 2492 
0:1:14:445, 2380 
0:1:14:461, 2273 
0:1:14:477, 2150 
0:1:14:492, 2066 
0:1:14:508, 2007 
0:1:14:524, 1979 
0:1:14:540, 1992 
0:1:14:555, 2019 
0:1:14:570, 2068 
0:1:14:585, 2114 
0:1:14:600, 2149 
0:1:14:616, 2165 
0:1:14:632, 2158 
0:1:14:648, 2132 
0:1:14:664, 2132 
0:1:14:680, 2113 
0:1:14:696, 2053 
0:1:14:711, 2011 
0:1:14:727, 1937 
0:1:14:742, 1891 
0:1:14:757, 1831 
0:1:14:773, 1775 
0:1:14:789, 1714 
0:1:14:804, 1671 
0:1:14:819, 1651 
0:1:14:834, 1633 
0:1:14:850, 1616 
0:1:14:866, 1590 
0:1:14:882, 1565 
0:1:14:898, 1552 
0:1:14:914, 1540 
0:1:14:930, 1535 
0:1:14:945, 1530 
0:1:14:961, 1526 
0:1:14:977, 1537 
0:1:14:992, 1579 
0:1:15:8, 1763 
0:1:15:24, 2015 
0:1:15:39, 2306 
0:1:15:54, 2511 
0:1:15:70, 2728 
0:1:15:86, 2878 
0:1:15:101, 2917 
0:1:15:116, 2888 
0:1:15:132, 2813 
0:1:15:148, 2710 
0:1:15:163, 2596 
0:1:15:178, 2483 
0:1:15:194, 2340 
0:1:15:210, 2237 
0:1:15:225, 2123 
0:1:15:240, 2067 
0:1:15:255, 2025 
0:1:15:271, 1996 
0:1:15:286, 1999 
0:1:15:302, 2040 
0:1:15:318, 2087 
0:1:15:334, 2110 
0:1:15:349, 2155 
0:1:15:365, 2170 
0:1:15:381, 2164 
0:1:15:397, 2130 
0:1:15:413, 2085 
0:1:15:429, 2016 
0:1:15:445, 1957 
0:1:15:461, 1897 
0:1:15:477, 1839 
0:1:15:493, 1786 
0:1:15:508, 1737 
0:1:15:523, 1695 
0:1:15:539, 1647 
0:1:15:555, 1614 
0:1:15:571, 1587 
0:1:15:587, 1564 
0:1:15:603, 1553 
0:1:15:619, 1547 
0:1:15:635, 1546 
0:1:15:650, 1547 
0:1:15:666, 1546 
0:1:15:682, 1545 
0:1:15:698, 1540 
0:1:15:714, 1531 
0:1:15:730, 1523 
0:1:15:745, 1533 
0:1:15:760, 1647 
0:1:15:776, 1860 
0:1:15:792, 2151 
0:1:15:808, 2520 
0:1:15:824, 2748 
0:1:15:839, 2882 
0:1:15:855, 2936 
0:1:15:871, 2932 
0:1:15:886, 2870 
0:1:15:901, 2771 
0:1:15:916, 2654 
0:1:15:931, 2531 
0:1:15:946, 2412 
0:1:15:962, 2298 
0:1:15:977, 2193 
0:1:15:992, 2098 
0:1:16:7, 2024 
0:1:16:23, 1980 
0:1:16:39, 1974 
0:1:16:55, 2005 
0:1:16:71, 2042 
0:1:16:86, 2111 
0:1:16:102, 2153 
0:1:16:117, 2175 
0:1:16:132, 2174 
0:1:16:147, 2153 
0:1:16:163, 2114 
0:1:16:179, 2049 
0:1:16:195, 2004 
0:1:16:210, 1956 
0:1:16:225, 1892 
0:1:16:240, 1831 
0:1:16:256, 1775 
0:1:16:272, 1749 
0:1:16:288, 1714 
0:1:16:304, 1673 
0:1:16:320, 1640 
0:1:16:336, 1625 
0:1:16:351, 1600 
0:1:16:367, 1578 
0:1:16:383, 1569 
0:1:16:399, 1568 
0:1:16:414, 1572 
0:1:16:430, 1577 
0:1:16:446, 1580 
0:1:16:461, 1581 
0:1:16:477, 1581 
0:1:16:492, 1579 
0:1:16:507, 1574 
0:1:16:523, 1577 
0:1:16:538, 1644 
0:1:16:554, 1803 
0:1:16:570, 2056 
0:1:16:586, 2419 
0:1:16:602, 2669 
0:1:16:618, 2857 
0:1:16:634, 2935 
0:1:16:649, 2928 
0:1:16:665, 2861 
0:1:16:680, 2757 
0:1:16:695, 2666 
0:1:16:711, 2570 
0:1:16:727, 2441 
0:1:16:742, 2314 
0:1:16:758, 2224 
0:1:16:774, 2083 
0:1:16:790, 1990 
0:1:16:806, 1938 
0:1:16:822, 1900 
0:1:16:838, 1896 
0:1:16:854, 1931 
0:1:16:870, 1987 
0:1:16:886, 2055 
0:1:16:902, 2110 
0:1:16:917, 2144 
0:1:16:932, 2152 
0:1:16:947, 2136 
0:1:16:963, 2099 
0:1:16:979, 2048 
0:1:16:996, 1987 
0:1:17:12, 1922 
0:1:17:27, 1858 
0:1:17:42, 1796 
0:1:17:57, 1738 
0:1:17:73, 1685 
0:1:17:89, 1639 
0:1:17:105, 1607 
0:1:17:121, 1570 
0:1:17:137, 1541 
0:1:17:152, 1519 
0:1:17:167, 1502 
0:1:17:183, 1488 
0:1:17:199, 1483 
0:1:17:214, 1481 
0:1:17:230, 1481 
0:1:17:246, 1481 
0:1:17:261, 1480 
0:1:17:277, 1485 
0:1:17:293, 1540 
0:1:17:309, 1638 
0:1:17:325, 1801 
0:1:17:341, 1941 
0:1:17:357, 2258 
0:1:17:373, 2563 
0:1:17:388, 2801 
0:1:17:403, 2965 
0:1:17:419, 3003 
0:1:17:434, 2969 
0:1:17:449, 2884 
0:1:17:464, 2768 
0:1:17:479, 2639 
0:1:17:494, 2540 
0:1:17:510, 2381 
0:1:17:526, 2291 
0:1:17:542, 2175 
0:1:17:557, 2050 
0:1:17:573, 1976 
0:1:17:589, 1938 
0:1:17:605, 1952 
0:1:17:620, 2014 
0:1:17:635, 2080 
0:1:17:650, 2142 
0:1:17:665, 2190 
0:1:17:680, 2199 
0:1:17:696, 2184 
0:1:17:712, 2147 
0:1:17:727, 2109 
0:1:17:743, 2048 
0:1:17:758, 1982 
0:1:17:774, 1914 
0:1:17:790, 1848 
0:1:17:806, 1787 
0:1:17:822, 1732 
0:1:17:838, 1706 
0:1:17:854, 1671 
0:1:17:869, 1628 
0:1:17:884, 1584 
0:1:17:900, 1556 
0:1:17:916, 1533 
0:1:17:932, 1523 
0:1:17:948, 1512 
0:1:17:964, 1507 
0:1:17:980, 1504 
0:1:17:996, 1502 
0:1:18:12, 1500 
0:1:18:28, 1499 
0:1:18:44, 1513 
0:1:18:59, 1584 
0:1:18:75, 1825 
0:1:18:90, 2123 
0:1:18:105, 2442 
0:1:18:121, 2713 
0:1:18:137, 2925 
0:1:18:153, 3003 
0:1:18:169, 2999 
0:1:18:185, 2910 
0:1:18:200, 2787 
0:1:18:215, 2653 
0:1:18:231, 2518 
0:1:18:247, 2354 
0:1:18:263, 2231 
0:1:18:279, 2117 
0:1:18:295, 2022 
0:1:18:311, 1967 
0:1:18:326, 1934 
0:1:18:341, 1928 
0:1:18:356, 1926 
0:1:18:372, 1948 
0:1:18:388, 2020 
0:1:18:404, 2090 
0:1:18:420, 2163 
0:1:18:436, 2199 
0:1:18:451, 2198 
0:1:18:467, 2163 
0:1:18:483, 2115 
0:1:18:499, 2054 
0:1:18:515, 1970 
0:1:18:531, 1886 
0:1:18:547, 1838 
0:1:18:562, 1779 
0:1:18:577, 1726 
0:1:18:592, 1679 
0:1:18:607, 1631 
0:1:18:623, 1600 
0:1:18:639, 1575 
0:1:18:655, 1562 
0:1:18:671, 1551 
0:1:18:686, 1546 
0:1:18:702, 1540 
0:1:18:718, 1538 
0:1:18:734, 1540 
0:1:18:750, 1551 
0:1:18:766, 1570 
0:1:18:782, 1585 
0:1:18:797, 1668 
0:1:18:812, 1708 
0:1:18:828, 1809 
0:1:18:843, 1869 
0:1:18:859, 2077 
0:1:18:875, 2378 
0:1:18:891, 2584 
0:1:18:907, 2855 
0:1:18:922, 2941 
0:1:18:938, 2964 
0:1:18:953, 2934 
0:1:18:969, 2852 
0:1:18:985, 2738 
0:1:19:1, 2608 
0:1:19:17, 2473 
0:1:19:32, 2340 
0:1:19:47, 2215 
0:1:19:63, 2099 
0:1:19:79, 2003 
0:1:19:95, 1925 
0:1:19:111, 1909 
0:1:19:127, 1936 
0:1:19:143, 2015 
0:1:19:159, 2072 
0:1:19:174, 2143 
0:1:19:190, 2194 
0:1:19:206, 2222 
0:1:19:222, 2213 
0:1:19:238, 2172 
0:1:19:253, 2122 
0:1:19:268, 2061 
0:1:19:283, 1996 
0:1:19:299, 1929 
0:1:19:315, 1865 
0:1:19:331, 1807 
0:1:19:348, 1743 
0:1:19:364, 1709 
0:1:19:380, 1670 
0:1:19:396, 1632 
0:1:19:412, 1608 
0:1:19:428, 1588 
0:1:19:443, 1575 
0:1:19:458, 1566 
0:1:19:474, 1557 
0:1:19:490, 1552 
0:1:19:505, 1556 
0:1:19:520, 1605 
0:1:19:535, 1747 
0:1:19:551, 1988 
0:1:19:566, 2207 
0:1:19:582, 2492 
0:1:19:598, 2721 
0:1:19:614, 2904 
0:1:19:630, 2929 
0:1:19:646, 2887 
0:1:19:661, 2796 
0:1:19:677, 2677 
0:1:19:693, 2544 
0:1:19:709, 2409 
0:1:19:725, 2246 
0:1:19:740, 2154 
0:1:19:755, 2013 
0:1:19:771, 1945 
0:1:19:787, 1895 
0:1:19:803, 1864 
0:1:19:819, 1888 
0:1:19:835, 1944 
0:1:19:850, 2018 
0:1:19:866, 2100 
0:1:19:882, 2140 
0:1:19:898, 2153 
0:1:19:914, 2135 
0:1:19:930, 2087 
0:1:19:946, 2031 
0:1:19:962, 1968 
0:1:19:977, 1900 
0:1:19:992, 1833 
0:1:20:8, 1769 
0:1:20:24, 1712 
0:1:20:40, 1649 
0:1:20:55, 1608 
0:1:20:71, 1574 
0:1:20:87, 1541 
0:1:20:102, 1522 
0:1:20:117, 1509 
0:1:20:133, 1502 
0:1:20:149, 1498 
0:1:20:165, 1499 
0:1:20:181, 1501 
0:1:20:196, 1512 
0:1:20:211, 1564 
0:1:20:226, 1706 
0:1:20:241, 1953 
0:1:20:257, 2263 
0:1:20:273, 2627 
0:1:20:289, 2839 
0:1:20:304, 2969 
0:1:20:320, 2978 
0:1:20:335, 2913 
0:1:20:350, 2838 
0:1:20:365, 2718 
0:1:20:380, 2589 
0:1:20:396, 2491 
0:1:20:412, 2364 
0:1:20:428, 2211 
0:1:20:443, 2097 
0:1:20:458, 2003 
0:1:20:474, 1929 
0:1:20:490, 1914 
0:1:20:505, 1937 
0:1:20:520, 1986 
0:1:20:535, 2044 
0:1:20:551, 2095 
0:1:20:567, 2131 
0:1:20:583, 2133 
0:1:20:599, 2114 
0:1:20:615, 2078 
0:1:20:631, 2029 
0:1:20:646, 1969 
0:1:20:661, 1903 
0:1:20:676, 1835 
0:1:20:691, 1755 
0:1:20:706, 1709 
0:1:20:721, 1651 
0:1:20:737, 1597 
0:1:20:753, 1540 
0:1:20:769, 1502 
0:1:20:785, 1475 
0:1:20:801, 1456 
0:1:20:817, 1446 
0:1:20:833, 1439 
0:1:20:849, 1437 
0:1:20:865, 1441 
0:1:20:881, 1447 
0:1:20:897, 1468 
0:1:20:912, 1530 
0:1:20:927, 1684 
0:1:20:942, 1943 
0:1:20:958, 2337 
0:1:20:974, 2622 
0:1:20:990, 2852 
0:1:21:5, 2977 
0:1:21:20, 2985 
0:1:21:36, 2939 
0:1:21:51, 2846 
0:1:21:67, 2694 
0:1:21:82, 2562 
0:1:21:98, 2429 
0:1:21:113, 2300 
0:1:21:129, 2179 
0:1:21:144, 2072 
0:1:21:160, 1986 
0:1:21:176, 1932 
0:1:21:192, 1939 
0:1:21:208, 1971 
0:1:21:223, 1985 
0:1:21:239, 2002 
0:1:21:254, 2072 
0:1:21:270, 2124 
0:1:21:286, 2178 
0:1:21:302, 2203 
0:1:21:317, 2208 
0:1:21:333, 2214 
0:1:21:348, 2210 
0:1:21:364, 2184 
0:1:21:379, 2165 
0:1:21:394, 2153 
0:1:21:409, 2114 
0:1:21:424, 2053 
0:1:21:440, 2020 
0:1:21:455, 1970 
0:1:21:471, 1922 
0:1:21:487, 1874 
0:1:21:503, 1829 
0:1:21:518, 1786 
0:1:21:534, 1748 
0:1:21:549, 1713 
0:1:21:565, 1676 
0:1:21:581, 1646 
0:1:21:596, 1629 
0:1:21:612, 1615 
0:1:21:627, 1604 
0:1:21:642, 1595 
0:1:21:657, 1592 
0:1:21:673, 1591 
0:1:21:689, 1592 
0:1:21:704, 1596 
0:1:21:720, 1610 
0:1:21:735, 1648 
0:1:21:751, 1729 
0:1:21:767, 1864 
0:1:21:782, 2114 
0:1:21:798, 2324 
0:1:21:814, 2523 
0:1:21:830, 2691 
0:1:21:845, 2871 
0:1:21:861, 2925 
0:1:21:876, 2937 
0:1:21:892, 2913 
0:1:21:908, 2860 
0:1:21:923, 2786 
0:1:21:938, 2666 
0:1:21:954, 2569 
0:1:21:969, 2471 
0:1:21:985, 2406 
0:1:22:1, 2406 
0:1:22:17, 2311 
0:1:22:33, 2219 
0:1:22:49, 2131 
0:1:22:64, 2051 
0:1:22:79, 2004 
0:1:22:94, 1964 
0:1:22:109, 1919 
0:1:22:124, 1902 
0:1:22:140, 1928 
0:1:22:155, 1985 
0:1:22:171, 2037 
0:1:22:187, 2103 
0:1:22:203, 2153 
0:1:22:219, 2174 
0:1:22:234, 2178 
0:1:22:250, 2161 
0:1:22:266, 2122 
0:1:22:282, 2070 
0:1:22:297, 2025 
0:1:22:312, 1961 
0:1:22:328, 1913 
0:1:22:343, 1849 
0:1:22:359, 1788 
0:1:22:375, 1743 
0:1:22:391, 1690 
0:1:22:407, 1633 
0:1:22:422, 1597 
0:1:22:438, 1569 
0:1:22:453, 1550 
0:1:22:469, 1537 
0:1:22:484, 1532 
0:1:22:499, 1530 
0:1:22:515, 1530 
0:1:22:531, 1536 
0:1:22:546, 1580 
0:1:22:561, 1758 
0:1:22:577, 2010 
0:1:22:593, 2309 
0:1:22:609, 2522 
0:1:22:624, 2753 
0:1:22:639, 2919 
0:1:22:655, 2968 
0:1:22:671, 2933 
0:1:22:686, 2850 
0:1:22:702, 2768 
0:1:22:718, 2677 
0:1:22:734, 2550 
0:1:22:749, 2425 
0:1:22:765, 2306 
0:1:22:780, 2222 
0:1:22:795, 2120 
0:1:22:811, 2039 
0:1:22:826, 1999 
0:1:22:841, 1981 
0:1:22:856, 2011 
0:1:22:872, 2068 
0:1:22:888, 2148 
0:1:22:904, 2198 
0:1:22:920, 2224 
0:1:22:935, 2226 
0:1:22:951, 2197 
0:1:22:967, 2154 
0:1:22:983, 2085 
0:1:22:998, 2024 
0:1:23:13, 1962 
0:1:23:28, 1905 
0:1:23:43, 1852 
0:1:23:58, 1805 
0:1:23:74, 1752 
0:1:23:90, 1704 
0:1:23:106, 1677 
0:1:23:122, 1645 
0:1:23:138, 1611 
0:1:23:153, 1591 
0:1:23:169, 1572 
0:1:23:185, 1564 
0:1:23:201, 1577 
0:1:23:216, 1641 
0:1:23:231, 1849 
0:1:23:246, 2108 
0:1:23:262, 2390 
0:1:23:278, 2637 
0:1:23:294, 2834 
0:1:23:310, 2927 
0:1:23:326, 2938 
0:1:23:342, 2875 
0:1:23:357, 2785 
0:1:23:373, 2676 
0:1:23:389, 2559 
0:1:23:405, 2443 
0:1:23:421, 2301 
0:1:23:437, 2191 
0:1:23:452, 2103 
0:1:23:468, 2031 
0:1:23:483, 2014 
0:1:23:498, 2031 
0:1:23:514, 2062 
0:1:23:530, 2114 
0:1:23:546, 2173 
0:1:23:562, 2203 
0:1:23:578, 2210 
0:1:23:594, 2188 
0:1:23:610, 2151 
0:1:23:626, 2086 
0:1:23:642, 2014 
0:1:23:657, 1953 
0:1:23:673, 1891 
0:1:23:689, 1820 
0:1:23:705, 1769 
0:1:23:720, 1735 
0:1:23:735, 1703 
0:1:23:751, 1661 
0:1:23:767, 1637 
0:1:23:782, 1617 
0:1:23:797, 1606 
0:1:23:813, 1592 
0:1:23:829, 1590 
0:1:23:845, 1619 
0:1:23:861, 1759 
0:1:23:877, 1967 
0:1:23:892, 2221 
0:1:23:907, 2518 
0:1:23:923, 2655 
0:1:23:938, 2788 
0:1:23:953, 2820 
0:1:23:968, 2778 
0:1:23:983, 2721 
0:1:23:999, 2598 
0:1:24:15, 2487 
0:1:24:31, 2374 
0:1:24:47, 2234 
0:1:24:63, 2128 
0:1:24:78, 2031 
0:1:24:94, 1957 
0:1:24:110, 1938 
0:1:24:126, 1955 
0:1:24:142, 1998 
0:1:24:157, 2051 
0:1:24:173, 2113 
0:1:24:188, 2144 
0:1:24:203, 2155 
0:1:24:219, 2145 
0:1:24:235, 2110 
0:1:24:251, 2070 
0:1:24:267, 2022 
0:1:24:282, 1973 
0:1:24:298, 1914 
0:1:24:314, 1871 
0:1:24:330, 1839 
0:1:24:346, 1792 
0:1:24:361, 1757 
0:1:24:377, 1726 
0:1:24:393, 1692 
0:1:24:408, 1673 
0:1:24:423, 1671 
0:1:24:438, 1717 
0:1:24:455, 1842 
0:1:24:470, 2046 
0:1:24:485, 2287 
0:1:24:501, 2561 
0:1:24:517, 2729 
0:1:24:533, 2806 
0:1:24:549, 2808 
0:1:24:564, 2758 
0:1:24:580, 2673 
0:1:24:595, 2596 
0:1:24:610, 2514 
0:1:24:626, 2373 
0:1:24:642, 2260 
0:1:24:658, 2150 
0:1:24:673, 2052 
0:1:24:689, 1974 
0:1:24:705, 1930 
0:1:24:721, 1927 
0:1:24:737, 1960 
0:1:24:752, 1997 
0:1:24:768, 2048 
0:1:24:784, 2090 
0:1:24:800, 2114 
0:1:24:816, 2116 
0:1:24:832, 2097 
0:1:24:848, 2063 
0:1:24:864, 2015 
0:1:24:880, 1946 
0:1:24:895, 1886 
0:1:24:910, 1827 
0:1:24:926, 1754 
0:1:24:942, 1688 
0:1:24:957, 1652 
0:1:24:973, 1607 
0:1:24:989, 1568 
0:1:25:5, 1529 
0:1:25:21, 1509 
0:1:25:37, 1519 
0:1:25:53, 1635 
0:1:25:69, 1832 
0:1:25:85, 2150 
0:1:25:101, 2388 
0:1:25:117, 2610 
0:1:25:132, 2681 
0:1:25:147, 2674 
0:1:25:163, 2633 
0:1:25:179, 2521 
0:1:25:195, 2406 
0:1:25:210, 2283 
0:1:25:226, 2159 
0:1:25:242, 2008 
0:1:25:257, 1897 
0:1:25:273, 1806 
0:1:25:289, 1738 
0:1:25:305, 1731 
0:1:25:321, 1764 
0:1:25:337, 1826 
0:1:25:352, 1916 
0:1:25:367, 1962 
0:1:25:382, 2003 
0:1:25:397, 2017 
0:1:25:413, 2008 
0:1:25:429, 1972 
0:1:25:444, 1927 
0:1:25:460, 1876 
0:1:25:475, 1807 
0:1:25:491, 1753 
0:1:25:507, 1689 
0:1:25:522, 1641 
0:1:25:538, 1595 
0:1:25:553, 1553 
0:1:25:569, 1516 
0:1:25:585, 1486 
0:1:25:600, 1468 
0:1:25:615, 1446 
0:1:25:631, 1437 
0:1:25:647, 1470 
0:1:25:662, 1584 
0:1:25:677, 1800 
0:1:25:693, 2152 
0:1:25:709, 2416 
0:1:25:725, 2662 
0:1:25:741, 2731 
0:1:25:757, 2740 
0:1:25:773, 2682 
0:1:25:788, 2614 
0:1:25:804, 2534 
0:1:25:820, 2420 
0:1:25:835, 2334 
0:1:25:850, 2221 
0:1:25:866, 2090 
0:1:25:882, 1997 
0:1:25:898, 1910 
0:1:25:913, 1879 
0:1:25:929, 1888 
0:1:25:945, 1930 
0:1:25:960, 2009 
0:1:25:976, 2067 
0:1:25:992, 2100 
0:1:26:8, 2125 
0:1:26:24, 2119 
0:1:26:40, 2095 
0:1:26:56, 2046 
0:1:26:71, 1994 
0:1:26:86, 1935 
0:1:26:101, 1861 
0:1:26:117, 1805 
0:1:26:132, 1754 
0:1:26:147, 1696 
0:1:26:162, 1666 
0:1:26:178, 1622 
0:1:26:194, 1594 
0:1:26:209, 1570 
0:1:26:225, 1553 
0:1:26:240, 1544 
0:1:26:256, 1553 
0:1:26:272, 1619 
0:1:26:288, 1824 
0:1:26:303, 2063 
0:1:26:318, 2305 
0:1:26:333, 2456 
0:1:26:348, 2608 
0:1:26:363, 2666 
0:1:26:379, 2637 
0:1:26:395, 2565 
0:1:26:411, 2495 
0:1:26:427, 2389 
0:1:26:443, 2257 
0:1:26:458, 2156 
0:1:26:474, 2085 
0:1:26:490, 1996 
0:1:26:505, 1904 
0:1:26:520, 1861 
0:1:26:535, 1854 
0:1:26:550, 1883 
0:1:26:565, 1951 
0:1:26:581, 2011 
0:1:26:597, 2067 
0:1:26:613, 2089 
0:1:26:629, 2090 
0:1:26:645, 2071 
0:1:26:661, 2037 
0:1:26:677, 1981 
0:1:26:692, 1933 
0:1:26:707, 1886 
0:1:26:723, 1843 
0:1:26:739, 1805 
0:1:26:754, 1780 
0:1:26:769, 1752 
0:1:26:784, 1728 
0:1:26:800, 1707 
0:1:26:816, 1689 
0:1:26:832, 1678 
0:1:26:848, 1664 
0:1:26:864, 1655 
0:1:26:879, 1652 
0:1:26:895, 1681 
0:1:26:911, 1775 
0:1:26:927, 1998 
0:1:26:943, 2277 
0:1:26:958, 2473 
0:1:26:974, 2623 
0:1:26:990, 2688 
0:1:27:5, 2666 
0:1:27:20, 2622 
0:1:27:35, 2543 
0:1:27:50, 2452 
0:1:27:65, 2362 
0:1:27:80, 2298 
0:1:27:96, 2199 
0:1:27:111, 2127 
0:1:27:127, 2063 
0:1:27:143, 2026 
0:1:27:158, 1997 
0:1:27:174, 1994 
0:1:27:190, 2023 
0:1:27:206, 2060 
0:1:27:221, 2102 
0:1:27:236, 2114 
0:1:27:251, 2124 
0:1:27:267, 2118 
0:1:27:283, 2091 
0:1:27:299, 2057 
0:1:27:315, 2004 
0:1:27:331, 1969 
0:1:27:347, 1908 
0:1:27:362, 1861 
0:1:27:378, 1819 
0:1:27:394, 1777 
0:1:27:410, 1752 
0:1:27:426, 1729 
0:1:27:441, 1718 
0:1:27:457, 1707 
0:1:27:472, 1698 
0:1:27:487, 1691 
0:1:27:503, 1680 
0:1:27:519, 1670 
0:1:27:535, 1659 
0:1:27:551, 1661 
0:1:27:567, 1713 
0:1:27:583, 1887 
0:1:27:599, 2090 
0:1:27:615, 2342 
0:1:27:631, 2497 
0:1:27:647, 2583 
0:1:27:663, 2610 
0:1:27:679, 2582 
0:1:27:695, 2499 
0:1:27:710, 2412 
0:1:27:725, 2320 
0:1:27:742, 2252 
0:1:27:757, 2167 
0:1:27:773, 2087 
0:1:27:789, 2012 
0:1:27:805, 1934 
0:1:27:821, 1891 
0:1:27:837, 1874 
0:1:27:854, 1880 
0:1:27:870, 1909 
0:1:27:886, 1964 
0:1:27:902, 2006 
0:1:27:918, 2037 
0:1:27:934, 2041 
0:1:27:949, 2027 
0:1:27:964, 1992 
0:1:27:980, 1952 
0:1:27:996, 1905 
0:1:28:12, 1842 
0:1:28:28, 1793 
0:1:28:44, 1745 
0:1:28:60, 1712 
0:1:28:76, 1662 
0:1:28:92, 1629 
0:1:28:108, 1596 
0:1:28:124, 1578 
0:1:28:140, 1563 
0:1:28:155, 1557 
0:1:28:171, 1554 
0:1:28:186, 1554 
0:1:28:201, 1554 
0:1:28:217, 1554 
0:1:28:232, 1559 
0:1:28:248, 1583 
0:1:28:263, 1663 
0:1:28:278, 1829 
0:1:28:294, 2061 
0:1:28:309, 2305 
0:1:28:325, 2504 
0:1:28:341, 2663 
0:1:28:356, 2683 
0:1:28:371, 2644 
0:1:28:386, 2547 
0:1:28:402, 2448 
0:1:28:417, 2322 
0:1:28:432, 2225 
0:1:28:448, 2131 
0:1:28:464, 2043 
0:1:28:480, 1965 
0:1:28:496, 1902 
0:1:28:512, 1871 
0:1:28:528, 1857 
0:1:28:544, 1886 
0:1:28:559, 1936 
0:1:28:575, 2009 
0:1:28:590, 2057 
0:1:28:606, 2086 
0:1:28:621, 2093 
0:1:28:637, 2072 
0:1:28:652, 2048 
0:1:28:668, 2007 
0:1:28:684, 1961 
0:1:28:700, 1910 
0:1:28:716, 1848 
0:1:28:732, 1801 
0:1:28:748, 1759 
0:1:28:763, 1719 
0:1:28:779, 1684 
0:1:28:795, 1647 
0:1:28:811, 1623 
0:1:28:827, 1605 
0:1:28:843, 1592 
0:1:28:859, 1584 
0:1:28:875, 1581 
0:1:28:890, 1584 
0:1:28:905, 1600 
0:1:28:920, 1662 
0:1:28:935, 1805 
0:1:28:950, 2020 
0:1:28:965, 2261 
0:1:28:981, 2472 
0:1:28:996, 2628 
0:1:29:12, 2692 
0:1:29:27, 2678 
0:1:29:43, 2618 
0:1:29:58, 2501 
0:1:29:74, 2393 
0:1:29:90, 2256 
0:1:29:106, 2176 
0:1:29:121, 2077 
0:1:29:136, 1960 
0:1:29:151, 1883 
0:1:29:166, 1830 
0:1:29:182, 1813 
0:1:29:197, 1834 
0:1:29:212, 1888 
0:1:29:227, 1961 
0:1:29:242, 2026 
0:1:29:258, 2072 
0:1:29:274, 2094 
0:1:29:290, 2089 
0:1:29:305, 2059 
0:1:29:321, 2030 
0:1:29:337, 1982 
0:1:29:352, 1931 
0:1:29:367, 1866 
0:1:29:383, 1815 
0:1:29:399, 1768 
0:1:29:415, 1713 
0:1:29:431, 1674 
0:1:29:447, 1631 
0:1:29:462, 1602 
0:1:29:478, 1578 
0:1:29:494, 1562 
0:1:29:510, 1547 
0:1:29:526, 1545 
0:1:29:542, 1570 
0:1:29:557, 1702 
0:1:29:572, 1912 
0:1:29:587, 2177 
0:1:29:602, 2431 
0:1:29:618, 2659 
0:1:29:634, 2755 
0:1:29:650, 2748 
0:1:29:666, 2685 
0:1:29:682, 2591 
0:1:29:698, 2456 
0:1:29:714, 2315 
0:1:29:730, 2234 
0:1:29:746, 2130 
0:1:29:761, 2033 
0:1:29:777, 1967 
0:1:29:793, 1897 
0:1:29:809, 1855 
0:1:29:824, 1851 
0:1:29:839, 1884 
0:1:29:855, 1960 
0:1:29:871, 2026 
0:1:29:887, 2079 
0:1:29:903, 2113 
0:1:29:918, 2112 
0:1:29:934, 2090 
0:1:29:950, 2051 
0:1:29:966, 1990 
0:1:29:982, 1935 
0:1:29:998, 1880 
0:1:30:14, 1826 
0:1:30:30, 1762 
0:1:30:46, 1716 
0:1:30:61, 1673 
0:1:30:76, 1628 
0:1:30:91, 1600 
0:1:30:107, 1576 
0:1:30:123, 1556 
0:1:30:139, 1551 
0:1:30:155, 1567 
0:1:30:171, 1690 
0:1:30:186, 1902 
0:1:30:201, 2177 
0:1:30:217, 2506 
0:1:30:233, 2699 
0:1:30:248, 2817 
0:1:30:263, 2831 
0:1:30:279, 2766 
0:1:30:294, 2674 
0:1:30:309, 2565 
0:1:30:325, 2455 
0:1:30:340, 2348 
0:1:30:355, 2272 
0:1:30:370, 2196 
0:1:30:386, 2100 
0:1:30:402, 1999 
0:1:30:418, 1942 
0:1:30:434, 1917 
0:1:30:450, 1935 
0:1:30:465, 1993 
0:1:30:481, 2049 
0:1:30:497, 2096 
0:1:30:512, 2124 
0:1:30:527, 2129 
0:1:30:542, 2111 
0:1:30:558, 2087 
0:1:30:574, 2044 
0:1:30:590, 1993 
0:1:30:606, 1922 
0:1:30:621, 1865 
0:1:30:636, 1796 
0:1:30:651, 1746 
0:1:30:666, 1701 
0:1:30:682, 1652 
0:1:30:698, 1617 
0:1:30:714, 1581 
0:1:30:730, 1558 
0:1:30:746, 1543 
0:1:30:761, 1538 
0:1:30:776, 1559 
0:1:30:791, 1620 
0:1:30:807, 1792 
0:1:30:822, 2050 
0:1:30:838, 2335 
0:1:30:854, 2578 
0:1:30:870, 2791 
0:1:30:885, 2835 
0:1:30:901, 2812 
0:1:30:917, 2718 
0:1:30:933, 2617 
0:1:30:949, 2479 
0:1:30:965, 2397 
0:1:30:980, 2294 
0:1:30:995, 2196 
0:1:31:10, 2106 
0:1:31:26, 2028 
0:1:31:42, 1967 
0:1:31:57, 1934 
0:1:31:72, 1946 
0:1:31:87, 1984 
0:1:31:103, 2048 
0:1:31:119, 2093 
0:1:31:135, 2125 
0:1:31:151, 2123 
0:1:31:167, 2107 
0:1:31:182, 2072 
0:1:31:198, 2010 
0:1:31:214, 1955 
0:1:31:229, 1897 
0:1:31:244, 1840 
0:1:31:259, 1786 
0:1:31:275, 1733 
0:1:31:291, 1673 
0:1:31:306, 1633 
0:1:31:322, 1601 
0:1:31:338, 1576 
0:1:31:354, 1558 
0:1:31:370, 1545 
0:1:31:386, 1536 
0:1:31:401, 1531 
0:1:31:416, 1532 
0:1:31:432, 1575 
0:1:31:448, 1659 
0:1:31:463, 1925 
0:1:31:478, 2207 
0:1:31:494, 2479 
0:1:31:510, 2689 
0:1:31:526, 2825 
0:1:31:542, 2846 
0:1:31:557, 2795 
0:1:31:572, 2731 
0:1:31:587, 2627 
0:1:31:603, 2518 
0:1:31:618, 2385 
0:1:31:634, 2284 
0:1:31:650, 2165 
0:1:31:666, 2077 
0:1:31:682, 2004 
0:1:31:697, 1956 
0:1:31:712, 1940 
0:1:31:728, 1966 
0:1:31:744, 2013 
0:1:31:760, 2063 
0:1:31:776, 2097 
0:1:31:792, 2120 
0:1:31:808, 2132 
0:1:31:824, 2122 
0:1:31:840, 2094 
0:1:31:856, 2042 
0:1:31:871, 1989 
0:1:31:887, 1931 
0:1:31:903, 1872 
0:1:31:918, 1801 
0:1:31:933, 1750 
0:1:31:948, 1704 
0:1:31:964, 1664 
0:1:31:979, 1638 
0:1:31:994, 1610 
0:1:32:9, 1589 
0:1:32:25, 1573 
0:1:32:41, 1565 
0:1:32:57, 1563 
0:1:32:73, 1567 
0:1:32:88, 1569 
0:1:32:104, 1574 
0:1:32:120, 1592 
0:1:32:136, 1655 
0:1:32:152, 1809 
0:1:32:168, 2055 
0:1:32:183, 2268 
0:1:32:199, 2536 
0:1:32:215, 2780 
0:1:32:231, 2891 
0:1:32:246, 2903 
0:1:32:261, 2867 
0:1:32:277, 2789 
0:1:32:292, 2687 
0:1:32:307, 2575 
0:1:32:322, 2463 
0:1:32:338, 2358 
0:1:32:353, 2257 
0:1:32:368, 2165 
0:1:32:384, 2070 
0:1:32:400, 2031 
0:1:32:416, 2009 
0:1:32:432, 2021 
0:1:32:448, 2071 
0:1:32:463, 2109 
0:1:32:478, 2166 
0:1:32:493, 2188 
0:1:32:509, 2200 
0:1:32:525, 2189 
0:1:32:540, 2159 
0:1:32:557, 2105 
0:1:32:572, 2056 
0:1:32:588, 2017 
0:1:32:604, 1965 
0:1:32:619, 1914 
0:1:32:631, 1876 
0:1:32:650, 1828 
0:1:32:666, 1773 
0:1:32:681, 1743 
0:1:32:697, 1707 
0:1:32:712, 1679 
0:1:32:727, 1658 
0:1:32:742, 1643 
0:1:32:757, 1634 
0:1:32:773, 1628 
0:1:32:789, 1623 
0:1:32:805, 1621 
0:1:32:821, 1619 
0:1:32:836, 1615 
0:1:32:852, 1614 
0:1:32:868, 1636 
0:1:32:884, 1725 
0:1:32:900, 1973 
0:1:32:916, 2243 
0:1:32:931, 2506 
0:1:32:946, 2709 
0:1:32:962, 2846 
0:1:32:978, 2874 
0:1:32:993, 2837 
0:1:33:9, 2730 
0:1:33:25, 2648 
0:1:33:41, 2531 
0:1:33:57, 2417 
0:1:33:72, 2283 
0:1:33:88, 2184 
0:1:33:104, 2074 
0:1:33:121, 2003 
0:1:33:136, 1963 
0:1:33:152, 1943 
0:1:33:168, 1955 
0:1:33:184, 1993 
0:1:33:199, 2041 
0:1:33:215, 2097 
0:1:33:231, 2118 
0:1:33:247, 2126 
0:1:33:263, 2111 
0:1:33:279, 2079 
0:1:33:295, 2017 
0:1:33:311, 1958 
0:1:33:327, 1896 
0:1:33:343, 1833 
0:1:33:358, 1772 
0:1:33:374, 1715 
0:1:33:390, 1650 
0:1:33:405, 1605 
0:1:33:420, 1566 
0:1:33:435, 1543 
0:1:33:450, 1516 
0:1:33:465, 1500 
0:1:33:481, 1493 
0:1:33:496, 1484 
0:1:33:512, 1479 
0:1:33:528, 1477 
0:1:33:543, 1479 
0:1:33:559, 1483 
0:1:33:574, 1487 
0:1:33:590, 1488 
0:1:33:605, 1488 
0:1:33:620, 1501 
0:1:33:636, 1603 
0:1:33:652, 1870 
0:1:33:667, 2092 
0:1:33:682, 2323 
0:1:33:697, 2594 
0:1:33:713, 2801 
0:1:33:728, 2888 
0:1:33:743, 2884 
0:1:33:759, 2821 
0:1:33:775, 2719 
0:1:33:791, 2599 
0:1:33:807, 2476 
0:1:33:822, 2406 
0:1:33:838, 2286 
0:1:33:854, 2142 
0:1:33:869, 2063 
0:1:33:885, 1969 
0:1:33:900, 1902 
0:1:33:915, 1869 
0:1:33:931, 1878 
0:1:33:947, 1935 
0:1:33:962, 2002 
0:1:33:978, 2084 
0:1:33:994, 2130 
0:1:34:9, 2152 
0:1:34:25, 2147 
0:1:34:41, 2120 
0:1:34:56, 2066 
0:1:34:72, 2027 
0:1:34:88, 1969 
0:1:34:103, 1910 
0:1:34:119, 1837 
0:1:34:134, 1784 
0:1:34:149, 1736 
0:1:34:165, 1692 
0:1:34:181, 1654 
0:1:34:196, 1613 
0:1:34:211, 1588 
0:1:34:226, 1571 
0:1:34:242, 1562 
0:1:34:258, 1557 
0:1:34:273, 1557 
0:1:34:289, 1559 
0:1:34:305, 1561 
0:1:34:320, 1563 
0:1:34:335, 1577 
0:1:34:351, 1647 
0:1:34:367, 1819 
0:1:34:382, 2011 
0:1:34:397, 2308 
0:1:34:412, 2584 
0:1:34:428, 2790 
0:1:34:444, 2928 
0:1:34:459, 2923 
0:1:34:475, 2855 
0:1:34:491, 2805 
0:1:34:506, 2685 
0:1:34:522, 2553 
0:1:34:537, 2420 
0:1:34:553, 2294 
0:1:34:568, 2148 
0:1:34:584, 2043 
0:1:34:599, 1960 
0:1:34:614, 1907 
0:1:34:629, 1895 
0:1:34:645, 1924 
0:1:34:661, 1983 
0:1:34:677, 2069 
0:1:34:693, 2128 
0:1:34:708, 2156 
0:1:34:725, 2170 
0:1:34:741, 2160 
0:1:34:756, 2128 
0:1:34:772, 2080 
0:1:34:787, 2019 
0:1:34:803, 1951 
0:1:34:819, 1881 
0:1:34:834, 1830 
0:1:34:849, 1765 
0:1:34:864, 1706 
0:1:34:880, 1652 
0:1:34:896, 1593 
0:1:34:912, 1555 
0:1:34:928, 1531 
0:1:34:944, 1505 
0:1:34:960, 1485 
0:1:34:976, 1469 
0:1:34:992, 1456 
0:1:35:8, 1441 
0:1:35:23, 1435 
0:1:35:38, 1439 
0:1:35:54, 1523 
0:1:35:69, 1714 
0:1:35:84, 2007 
0:1:35:100, 2333 
0:1:35:116, 2618 
0:1:35:132, 2835 
0:1:35:148, 2930 
0:1:35:163, 2925 
0:1:35:179, 2858 
0:1:35:195, 2754 
0:1:35:211, 2631 
0:1:35:227, 2501 
0:1:35:242, 2405 
0:1:35:259, 2247 
0:1:35:274, 2154 
0:1:35:290, 2038 
0:1:35:305, 1940 
0:1:35:320, 1872 
0:1:35:335, 1846 
0:1:35:351, 1844 
0:1:35:366, 1885 
0:1:35:382, 1942 
0:1:35:398, 2000 
0:1:35:414, 2048 
0:1:35:430, 2056 
0:1:35:446, 2038 
0:1:35:462, 1999 
0:1:35:478, 1934 
0:1:35:494, 1876 
0:1:35:510, 1818 
0:1:35:526, 1765 
0:1:35:541, 1729 
0:1:35:556, 1685 
0:1:35:571, 1646 
0:1:35:587, 1613 
0:1:35:603, 1578 
0:1:35:619, 1559 
0:1:35:634, 1547 
0:1:35:650, 1542 
0:1:35:666, 1545 
0:1:35:682, 1551 
0:1:35:697, 1562 
0:1:35:712, 1570 
0:1:35:727, 1590 
0:1:35:743, 1623 
0:1:35:759, 1696 
0:1:35:774, 1881 
0:1:35:789, 2149 
0:1:35:804, 2439 
0:1:35:819, 2691 
0:1:35:834, 2831 
0:1:35:849, 2937 
0:1:35:865, 2967 
0:1:35:881, 2911 
0:1:35:897, 2816 
0:1:35:912, 2695 
0:1:35:927, 2565 
0:1:35:943, 2403 
0:1:35:959, 2279 
0:1:35:975, 2189 
0:1:35:990, 2103 
0:1:36:5, 2000 
0:1:36:20, 1921 
0:1:36:36, 1873 
0:1:36:51, 1882 
0:1:36:67, 1926 
0:1:36:83, 1987 
0:1:36:99, 2058 
0:1:36:115, 2092 
0:1:36:130, 2096 
0:1:36:145, 2072 
0:1:36:161, 2035 
0:1:36:176, 1968 
0:1:36:191, 1887 
0:1:36:207, 1800 
0:1:36:223, 1713 
0:1:36:238, 1631 
0:1:36:253, 1562 
0:1:36:268, 1501 
0:1:36:284, 1452 
0:1:36:300, 1408 
0:1:36:316, 1386 
0:1:36:332, 1374 
0:1:36:348, 1362 
0:1:36:363, 1356 
0:1:36:379, 1353 
0:1:36:394, 1349 
0:1:36:410, 1343 
0:1:36:425, 1334 
0:1:36:440, 1338 
0:1:36:456, 1399 
0:1:36:472, 1645 
0:1:36:486, 1879 
0:1:36:502, 2236 
0:1:36:518, 2565 
0:1:36:533, 2806 
0:1:36:549, 2935 
0:1:36:565, 2977 
0:1:36:581, 2940 
0:1:36:596, 2875 
0:1:36:612, 2757 
0:1:36:627, 2621 
0:1:36:642, 2476 
0:1:36:658, 2294 
0:1:36:673, 2187 
0:1:36:689, 2022 
0:1:36:704, 1911 
0:1:36:719, 1834 
0:1:36:734, 1801 
0:1:36:750, 1799 
0:1:36:766, 1837 
0:1:36:782, 1880 
0:1:36:798, 1940 
0:1:36:814, 1988 
0:1:36:830, 2018 
0:1:36:846, 2022 
0:1:36:861, 2010 
0:1:36:877, 1964 
0:1:36:893, 1912 
0:1:36:909, 1852 
0:1:36:925, 1771 
0:1:36:940, 1705 
0:1:36:955, 1640 
0:1:36:971, 1580 
0:1:36:987, 1528 
0:1:37:3, 1484 
0:1:37:19, 1447 
0:1:37:35, 1424 
0:1:37:51, 1391 
0:1:37:66, 1372 
0:1:37:82, 1361 
0:1:37:98, 1391 
0:1:37:114, 1513 
0:1:37:130, 1761 
0:1:37:146, 2103 
0:1:37:161, 2455 
0:1:37:177, 2740 
0:1:37:192, 2903 
0:1:37:207, 2987 
0:1:37:223, 2969 
0:1:37:239, 2885 
0:1:37:255, 2793 
0:1:37:270, 2651 
0:1:37:286, 2499 
0:1:37:301, 2347 
0:1:37:316, 2196 
0:1:37:332, 2049 
0:1:37:347, 1913 
0:1:37:363, 1800 
0:1:37:379, 1708 
0:1:37:395, 1683 
0:1:37:411, 1700 
0:1:37:426, 1748 
0:1:37:441, 1808 
0:1:37:457, 1860 
0:1:37:473, 1886 
0:1:37:488, 1898 
0:1:37:504, 1884 
0:1:37:520, 1848 
0:1:37:536, 1781 
0:1:37:551, 1715 
0:1:37:566, 1644 
0:1:37:582, 1571 
0:1:37:598, 1501 
0:1:37:614, 1425 
0:1:37:630, 1378 
0:1:37:646, 1340 
0:1:37:662, 1313 
0:1:37:677, 1296 
0:1:37:692, 1279 
0:1:37:708, 1264 
0:1:37:724, 1250 
0:1:37:740, 1250 
0:1:37:755, 1282 
0:1:37:770, 1422 
0:1:37:786, 1719 
0:1:37:801, 2128 
0:1:37:817, 2539 
0:1:37:832, 2867 
0:1:37:847, 3055 
0:1:37:863, 3157 
0:1:37:878, 3146 
0:1:37:893, 3087 
0:1:37:908, 2999 
0:1:37:924, 2856 
0:1:37:939, 2702 
0:1:37:954, 2548 
0:1:37:970, 2402 
0:1:37:986, 2234 
0:1:38:2, 2111 
0:1:38:18, 2005 
0:1:38:34, 1925 
0:1:38:50, 1877 
0:1:38:65, 1865 
0:1:38:80, 1894 
0:1:38:95, 1927 
0:1:38:110, 1975 
0:1:38:125, 2007 
0:1:38:140, 2036 
0:1:38:156, 2041 
0:1:38:172, 2022 
0:1:38:188, 1975 
0:1:38:204, 1925 
0:1:38:220, 1871 
0:1:38:236, 1829 
0:1:38:252, 1766 
0:1:38:267, 1720 
0:1:38:283, 1678 
0:1:38:299, 1640 
0:1:38:315, 1613 
0:1:38:330, 1579 
0:1:38:346, 1544 
0:1:38:361, 1510 
0:1:38:376, 1487 
0:1:38:392, 1462 
0:1:38:408, 1472 
0:1:38:424, 1583 
0:1:38:440, 1842 
0:1:38:456, 2213 
0:1:38:472, 2688 
0:1:38:488, 2981 
0:1:38:504, 3177 
0:1:38:520, 3223 
0:1:38:535, 3201 
0:1:38:550, 3116 
0:1:38:566, 2960 
0:1:38:582, 2816 
0:1:38:597, 2668 
0:1:38:612, 2519 
0:1:38:628, 2372 
0:1:38:644, 2232 
0:1:38:659, 2103 
0:1:38:675, 1997 
0:1:38:691, 1924 
0:1:38:707, 1890 
0:1:38:723, 1890 
0:1:38:739, 1906 
0:1:38:755, 1942 
0:1:38:771, 1987 
0:1:38:787, 2009 
0:1:38:803, 2009 
0:1:38:819, 1988 
0:1:38:834, 1960 
0:1:38:849, 1910 
0:1:38:864, 1834 
0:1:38:880, 1769 
0:1:38:896, 1689 
0:1:38:912, 1626 
0:1:38:928, 1567 
0:1:38:944, 1526 
0:1:38:960, 1465 
0:1:38:976, 1421 
0:1:38:992, 1383 
0:1:39:7, 1341 
0:1:39:22, 1319 
0:1:39:38, 1290 
0:1:39:54, 1297 
0:1:39:69, 1396 
0:1:39:84, 1648 
0:1:39:100, 2029 
0:1:39:116, 2536 
0:1:39:131, 2788 
0:1:39:147, 2974 
0:1:39:163, 3113 
0:1:39:178, 3143 
0:1:39:194, 3102 
0:1:39:209, 2998 
0:1:39:225, 2859 
0:1:39:241, 2707 
0:1:39:257, 2515 
0:1:39:272, 2367 
0:1:39:288, 2227 
0:1:39:303, 2098 
0:1:39:318, 1986 
0:1:39:334, 1898 
0:1:39:349, 1853 
0:1:39:365, 1826 
0:1:39:380, 1849 
0:1:39:395, 1898 
0:1:39:411, 1962 
0:1:39:427, 2031 
0:1:39:442, 2064 
0:1:39:457, 2073 
0:1:39:473, 2058 
0:1:39:489, 2025 
0:1:39:505, 1979 
0:1:39:520, 1924 
0:1:39:535, 1881 
0:1:39:550, 1820 
0:1:39:566, 1775 
0:1:39:582, 1716 
0:1:39:598, 1647 
0:1:39:614, 1598 
0:1:39:630, 1545 
0:1:39:646, 1509 
0:1:39:662, 1480 
0:1:39:677, 1467 
0:1:39:693, 1492 
0:1:39:708, 1628 
0:1:39:723, 1996 
0:1:39:739, 2377 
0:1:39:755, 2649 
0:1:39:771, 2875 
0:1:39:786, 3060 
0:1:39:801, 3152 
0:1:39:817, 3174 
0:1:39:833, 3137 
0:1:39:849, 3033 
0:1:39:864, 2866 
0:1:39:879, 2754 
0:1:39:894, 2602 
0:1:39:910, 2415 
0:1:39:926, 2271 
0:1:39:942, 2137 
0:1:39:958, 2021 
0:1:39:974, 1932 
0:1:39:989, 1889 
0:1:40:4, 1870 
0:1:40:19, 1891 
0:1:40:35, 1939 
0:1:40:50, 1995 
0:1:40:65, 2042 
0:1:40:81, 2072 
0:1:40:96, 2067 
0:1:40:111, 2039 
0:1:40:126, 1991 
0:1:40:142, 1931 
0:1:40:158, 1846 
0:1:40:174, 1776 
0:1:40:189, 1708 
0:1:40:205, 1644 
0:1:40:221, 1584 
0:1:40:236, 1528 
0:1:40:251, 1475 
0:1:40:267, 1417 
0:1:40:283, 1376 
0:1:40:300, 1342 
0:1:40:316, 1325 
0:1:40:332, 1393 
0:1:40:348, 1603 
0:1:40:363, 1955 
0:1:40:378, 2262 
0:1:40:394, 2555 
0:1:40:410, 2868 
0:1:40:426, 3114 
0:1:40:442, 3138 
0:1:40:458, 3082 
0:1:40:474, 2973 
0:1:40:489, 2873 
0:1:40:504, 2729 
0:1:40:519, 2581 
0:1:40:534, 2437 
0:1:40:550, 2299 
0:1:40:565, 2169 
0:1:40:581, 2052 
0:1:40:597, 1977 
0:1:40:612, 1904 
0:1:40:627, 1867 
0:1:40:643, 1877 
0:1:40:659, 1918 
0:1:40:674, 1973 
0:1:40:690, 2033 
0:1:40:705, 2056 
0:1:40:720, 2066 
0:1:40:736, 2056 
0:1:40:752, 2036 
0:1:40:768, 1993 
0:1:40:784, 1936 
0:1:40:799, 1890 
0:1:40:815, 1826 
0:1:40:831, 1777 
0:1:40:847, 1701 
0:1:40:862, 1657 
0:1:40:878, 1588 
0:1:40:893, 1537 
0:1:40:908, 1491 
0:1:40:924, 1451 
0:1:40:939, 1415 
0:1:40:954, 1386 
0:1:40:969, 1372 
0:1:40:985, 1418 
0:1:41:1, 1594 
0:1:41:17, 1916 
0:1:41:33, 2311 
0:1:41:49, 2678 
0:1:41:65, 2949 
0:1:41:81, 3118 
0:1:41:97, 3133 
0:1:41:112, 3060 
0:1:41:128, 2942 
0:1:41:143, 2801 
0:1:41:159, 2617 
0:1:41:174, 2464 
0:1:41:189, 2325 
0:1:41:205, 2195 
0:1:41:221, 2104 
0:1:41:237, 2002 
0:1:41:252, 1923 
0:1:41:268, 1879 
0:1:41:283, 1873 
0:1:41:298, 1901 
0:1:41:314, 1950 
0:1:41:329, 2004 
0:1:41:345, 2043 
0:1:41:360, 2060 
0:1:41:376, 2047 
0:1:41:392, 2013 
0:1:41:408, 1960 
0:1:41:423, 1898 
0:1:41:439, 1848 
0:1:41:455, 1780 
0:1:41:470, 1713 
0:1:41:486, 1649 
0:1:41:501, 1590 
0:1:41:517, 1536 
0:1:41:533, 1486 
0:1:41:549, 1444 
0:1:41:565, 1406 
0:1:41:581, 1376 
0:1:41:596, 1349 
0:1:41:611, 1326 
0:1:41:627, 1342 
0:1:41:642, 1413 
0:1:41:657, 1638 
0:1:41:673, 1996 
0:1:41:689, 2400 
0:1:41:705, 2822 
0:1:41:720, 3013 
0:1:41:735, 3107 
0:1:41:751, 3126 
0:1:41:767, 3064 
0:1:41:783, 2950 
0:1:41:799, 2809 
0:1:41:815, 2621 
0:1:41:830, 2510 
0:1:41:846, 2366 
0:1:41:862, 2254 
0:1:41:877, 2125 
0:1:41:892, 2012 
0:1:41:908, 1923 
0:1:41:924, 1858 
0:1:41:939, 1852 
0:1:41:954, 1881 
0:1:41:969, 1931 
0:1:41:985, 1972 
0:1:42:0, 2020 
0:1:42:15, 2049 
0:1:42:30, 2054 
0:1:42:45, 2035 
0:1:42:61, 1984 
0:1:42:77, 1944 
0:1:42:93, 1884 
0:1:42:108, 1820 
0:1:42:123, 1755 
0:1:42:139, 1678 
0:1:42:155, 1622 
0:1:42:171, 1571 
0:1:42:187, 1526 
0:1:42:202, 1487 
0:1:42:218, 1444 
0:1:42:233, 1422 
0:1:42:249, 1399 
0:1:42:264, 1381 
0:1:42:280, 1370 
0:1:42:296, 1363 
0:1:42:312, 1394 
0:1:42:328, 1531 
0:1:42:343, 1905 
0:1:42:358, 2299 
0:1:42:374, 2670 
0:1:42:390, 2946 
0:1:42:406, 3117 
0:1:42:421, 3142 
0:1:42:437, 3099 
0:1:42:453, 2996 
0:1:42:469, 2856 
0:1:42:484, 2740 
0:1:42:499, 2580 
0:1:42:515, 2423 
0:1:42:531, 2273 
0:1:42:547, 2130 
0:1:42:563, 1971 
0:1:42:578, 1874 
0:1:42:593, 1813 
0:1:42:608, 1796 
0:1:42:624, 1822 
0:1:42:639, 1876 
0:1:42:654, 1942 
0:1:42:669, 2001 
0:1:42:684, 2039 
0:1:42:700, 2050 
0:1:42:716, 2040 
0:1:42:732, 2006 
0:1:42:748, 1942 
0:1:42:763, 1896 
0:1:42:778, 1847 
0:1:42:793, 1780 
0:1:42:808, 1715 
0:1:42:823, 1656 
0:1:42:839, 1599 
0:1:42:855, 1550 
0:1:42:871, 1506 
0:1:42:887, 1467 
0:1:42:903, 1435 
0:1:42:918, 1408 
0:1:42:934, 1385 
0:1:42:950, 1366 
0:1:42:965, 1371 
0:1:42:981, 1437 
0:1:42:997, 1636 
0:1:43:13, 2067 
0:1:43:28, 2461 
0:1:43:43, 2722 
0:1:43:58, 2978 
0:1:43:74, 3133 
0:1:43:90, 3115 
0:1:43:106, 3052 
0:1:43:122, 2926 
0:1:43:137, 2772 
0:1:43:153, 2566 
0:1:43:169, 2403 
0:1:43:185, 2238 
0:1:43:201, 2095 
0:1:43:216, 1972 
0:1:43:232, 1880 
0:1:43:248, 1829 
0:1:43:263, 1824 
0:1:43:278, 1864 
0:1:43:293, 1934 
0:1:43:308, 1993 
0:1:43:324, 2047 
0:1:43:340, 2110 
0:1:43:356, 2129 
0:1:43:372, 2117 
0:1:43:388, 2069 
0:1:43:404, 2012 
0:1:43:420, 1929 
0:1:43:436, 1859 
0:1:43:451, 1788 
0:1:43:467, 1738 
0:1:43:482, 1676 
0:1:43:498, 1621 
0:1:43:513, 1583 
0:1:43:528, 1539 
0:1:43:543, 1502 
0:1:43:558, 1469 
0:1:43:573, 1443 
0:1:43:589, 1416 
0:1:43:604, 1405 
0:1:43:620, 1418 
0:1:43:636, 1519 
0:1:43:652, 1761 
0:1:43:667, 2122 
0:1:43:683, 2510 
0:1:43:699, 2836 
0:1:43:715, 2959 
0:1:43:731, 3132 
0:1:43:746, 3161 
0:1:43:761, 3151 
0:1:43:776, 3078 
0:1:43:792, 2953 
0:1:43:807, 2802 
0:1:43:823, 2642 
0:1:43:839, 2444 
0:1:43:855, 2293 
0:1:43:870, 2145 
0:1:43:886, 1998 
0:1:43:902, 1915 
0:1:43:918, 1875 
0:1:43:934, 1896 
0:1:43:950, 1953 
0:1:43:965, 2010 
0:1:43:980, 2085 
0:1:43:995, 2130 
0:1:44:10, 2167 
0:1:44:25, 2173 
0:1:44:40, 2148 
0:1:44:56, 2087 
0:1:44:72, 2039 
0:1:44:87, 1970 
0:1:44:103, 1899 
0:1:44:118, 1829 
0:1:44:133, 1765 
0:1:44:149, 1706 
0:1:44:165, 1653 
0:1:44:181, 1615 
0:1:44:196, 1581 
0:1:44:211, 1541 
0:1:44:226, 1514 
0:1:44:242, 1482 
0:1:44:258, 1456 
0:1:44:274, 1448 
0:1:44:290, 1480 
0:1:44:306, 1681 
0:1:44:322, 1988 
0:1:44:338, 2447 
0:1:44:354, 2765 
0:1:44:370, 3001 
0:1:44:386, 3093 
0:1:44:402, 3080 
0:1:44:417, 2996 
0:1:44:433, 2833 
0:1:44:448, 2681 
0:1:44:463, 2487 
0:1:44:478, 2336 
0:1:44:494, 2191 
0:1:44:510, 2059 
0:1:44:525, 1950 
0:1:44:540, 1875 
0:1:44:556, 1841 
0:1:44:571, 1864 
0:1:44:587, 1905 
0:1:44:603, 1995 
0:1:44:619, 2063 
0:1:44:635, 2109 
0:1:44:651, 2125 
0:1:44:666, 2111 
0:1:44:681, 2072 
0:1:44:696, 2016 
0:1:44:712, 1968 
0:1:44:728, 1882 
0:1:44:743, 1830 
0:1:44:758, 1747 
0:1:44:774, 1700 
0:1:44:790, 1640 
0:1:44:806, 1613 
0:1:44:822, 1561 
0:1:44:838, 1504 
0:1:44:854, 1459 
0:1:44:869, 1432 
0:1:44:885, 1431 
0:1:44:901, 1510 
0:1:44:916, 1792 
0:1:44:931, 2136 
0:1:44:947, 2495 
0:1:44:962, 2786 
0:1:44:977, 2995 
0:1:44:993, 3051 
0:1:45:8, 3033 
0:1:45:24, 2998 
0:1:45:40, 2950 
0:1:45:55, 2857 
0:1:45:70, 2674 
0:1:45:86, 2518 
0:1:45:102, 2364 
0:1:45:118, 2178 
0:1:45:134, 2042 
0:1:45:149, 1905 
0:1:45:164, 1836 
0:1:45:180, 1813 
0:1:45:196, 1849 
0:1:45:212, 1915 
0:1:45:228, 2008 
0:1:45:244, 2056 
0:1:45:260, 2097 
0:1:45:276, 2108 
0:1:45:292, 2091 
0:1:45:308, 2051 
0:1:45:324, 1997 
0:1:45:340, 1933 
0:1:45:356, 1852 
0:1:45:371, 1788 
0:1:45:386, 1726 
0:1:45:401, 1666 
0:1:45:417, 1596 
0:1:45:433, 1545 
0:1:45:449, 1511 
0:1:45:465, 1474 
0:1:45:481, 1471 
0:1:45:497, 1568 
0:1:45:512, 1801 
0:1:45:527, 2043 
0:1:45:542, 2390 
0:1:45:558, 2744 
0:1:45:574, 2905 
0:1:45:589, 2977 
0:1:45:605, 2953 
0:1:45:620, 2892 
0:1:45:635, 2738 
0:1:45:651, 2628 
0:1:45:666, 2473 
0:1:45:682, 2315 
0:1:45:698, 2124 
0:1:45:714, 1986 
0:1:45:729, 1897 
0:1:45:745, 1810 
0:1:45:761, 1769 
0:1:45:776, 1780 
0:1:45:791, 1816 
0:1:45:807, 1912 
0:1:45:823, 1994 
0:1:45:839, 2059 
0:1:45:854, 2088 
0:1:45:869, 2098 
0:1:45:885, 2086 
0:1:45:901, 2038 
0:1:45:916, 1983 
0:1:45:931, 1920 
