Time, Data
0:0:0:0, 1952 
0:0:0:16, 1943 
0:0:0:31, 1961 
0:0:0:47, 1996 
0:0:0:63, 2022 
0:0:0:79, 2047 
0:0:0:94, 2059 
0:0:0:109, 2062 
0:0:0:124, 2058 
0:0:0:139, 2050 
0:0:0:154, 2035 
0:0:0:170, 2006 
0:0:0:185, 1973 
0:0:0:200, 1933 
0:0:0:215, 1873 
0:0:0:230, 1819 
0:0:0:246, 1765 
0:0:0:261, 1717 
0:0:0:277, 1688 
0:0:0:293, 1654 
0:0:0:309, 1639 
0:0:0:324, 1615 
0:0:0:339, 1594 
0:0:0:355, 1576 
0:0:0:371, 1565 
0:0:0:387, 1548 
0:0:0:402, 1532 
0:0:0:418, 1515 
0:0:0:434, 1505 
0:0:0:450, 1491 
0:0:0:465, 1486 
0:0:0:480, 1490 
0:0:0:495, 1495 
0:0:0:511, 1494 
0:0:0:527, 1495 
0:0:0:543, 1496 
0:0:0:558, 1494 
0:0:0:573, 1487 
0:0:0:589, 1484 
0:0:0:605, 1494 
0:0:0:620, 1547 
0:0:0:636, 1709 
0:0:0:652, 1929 
0:0:0:668, 2221 
0:0:0:683, 2549 
0:0:0:699, 2856 
0:0:0:714, 3124 
0:0:0:730, 3250 
0:0:0:746, 3318 
0:0:0:762, 3293 
0:0:0:778, 3201 
0:0:0:794, 3068 
0:0:0:809, 3032 
0:0:0:824, 2922 
0:0:0:840, 2848 
0:0:0:855, 2744 
0:0:0:870, 2619 
0:0:0:886, 2502 
0:0:0:902, 2390 
0:0:0:918, 2286 
0:0:0:934, 2213 
0:0:0:950, 2137 
0:0:0:966, 2089 
0:0:0:981, 2068 
0:0:0:996, 2052 
0:0:1:11, 2049 
0:0:1:26, 2054 
0:0:1:41, 2061 
0:0:1:57, 2071 
0:0:1:73, 2081 
0:0:1:88, 2086 
0:0:1:104, 2084 
0:0:1:120, 2071 
0:0:1:135, 2060 
0:0:1:151, 2044 
0:0:1:167, 2019 
0:0:1:183, 1972 
0:0:1:199, 1899 
0:0:1:215, 1853 
0:0:1:230, 1795 
0:0:1:245, 1740 
0:0:1:260, 1691 
0:0:1:275, 1661 
0:0:1:290, 1620 
0:0:1:305, 1604 
0:0:1:320, 1578 
0:0:1:336, 1556 
0:0:1:352, 1540 
0:0:1:368, 1522 
0:0:1:383, 1510 
0:0:1:399, 1497 
0:0:1:414, 1497 
0:0:1:430, 1505 
0:0:1:446, 1505 
0:0:1:462, 1501 
0:0:1:478, 1499 
0:0:1:493, 1497 
0:0:1:508, 1496 
0:0:1:524, 1497 
0:0:1:540, 1497 
0:0:1:556, 1494 
0:0:1:572, 1491 
0:0:1:588, 1495 
0:0:1:604, 1533 
0:0:1:620, 1643 
0:0:1:636, 1841 
0:0:1:652, 2044 
0:0:1:668, 2445 
0:0:1:683, 2758 
0:0:1:699, 3018 
0:0:1:714, 3183 
0:0:1:729, 3272 
0:0:1:744, 3277 
0:0:1:759, 3231 
0:0:1:775, 3121 
0:0:1:791, 2981 
0:0:1:807, 2899 
0:0:1:823, 2752 
0:0:1:839, 2618 
0:0:1:855, 2495 
0:0:1:870, 2376 
0:0:1:886, 2267 
0:0:1:902, 2146 
0:0:1:918, 2079 
0:0:1:934, 2038 
0:0:1:950, 2015 
0:0:1:965, 2012 
0:0:1:980, 2023 
0:0:1:995, 2049 
0:0:2:11, 2068 
0:0:2:27, 2081 
0:0:2:43, 2084 
0:0:2:59, 2066 
0:0:2:75, 2020 
0:0:2:91, 1974 
0:0:2:106, 1916 
0:0:2:121, 1862 
0:0:2:137, 1806 
0:0:2:153, 1750 
0:0:2:169, 1707 
0:0:2:184, 1665 
0:0:2:199, 1627 
0:0:2:214, 1594 
0:0:2:230, 1562 
0:0:2:246, 1544 
0:0:2:262, 1531 
0:0:2:278, 1518 
0:0:2:294, 1497 
0:0:2:310, 1488 
0:0:2:326, 1469 
0:0:2:341, 1457 
0:0:2:357, 1450 
0:0:2:373, 1448 
0:0:2:388, 1445 
0:0:2:404, 1453 
0:0:2:420, 1469 
0:0:2:435, 1478 
0:0:2:450, 1475 
0:0:2:465, 1464 
0:0:2:480, 1461 
0:0:2:496, 1498 
0:0:2:512, 1649 
0:0:2:528, 1857 
0:0:2:543, 2214 
0:0:2:559, 2543 
0:0:2:575, 2857 
0:0:2:590, 3139 
0:0:2:605, 3271 
0:0:2:621, 3297 
0:0:2:637, 3223 
0:0:2:653, 3134 
0:0:2:668, 2950 
0:0:2:683, 2801 
0:0:2:698, 2653 
0:0:2:713, 2520 
0:0:2:729, 2401 
0:0:2:744, 2264 
0:0:2:759, 2165 
0:0:2:775, 2076 
0:0:2:790, 2024 
0:0:2:806, 1997 
0:0:2:822, 1969 
0:0:2:838, 1973 
0:0:2:854, 2004 
0:0:2:869, 2039 
0:0:2:884, 2072 
0:0:2:899, 2094 
0:0:2:914, 2098 
0:0:2:930, 2064 
0:0:2:946, 2022 
0:0:2:962, 1970 
0:0:2:977, 1942 
0:0:2:993, 1913 
0:0:3:8, 1885 
0:0:3:24, 1871 
0:0:3:40, 1842 
0:0:3:55, 1805 
0:0:3:71, 1769 
0:0:3:86, 1736 
0:0:3:101, 1696 
0:0:3:117, 1659 
0:0:3:132, 1631 
0:0:3:147, 1604 
0:0:3:163, 1579 
0:0:3:179, 1555 
0:0:3:195, 1539 
0:0:3:210, 1526 
0:0:3:225, 1513 
0:0:3:241, 1498 
0:0:3:257, 1492 
0:0:3:273, 1489 
0:0:3:288, 1493 
0:0:3:304, 1497 
0:0:3:320, 1496 
0:0:3:335, 1498 
0:0:3:351, 1502 
0:0:3:366, 1498 
0:0:3:381, 1492 
0:0:3:396, 1491 
0:0:3:412, 1494 
0:0:3:428, 1500 
0:0:3:444, 1524 
0:0:3:460, 1618 
0:0:3:476, 1803 
0:0:3:492, 2068 
0:0:3:508, 2383 
0:0:3:524, 2466 
0:0:3:540, 2632 
0:0:3:556, 2713 
0:0:3:571, 2936 
0:0:3:586, 3197 
0:0:3:601, 3290 
0:0:3:616, 3328 
0:0:3:631, 3305 
0:0:3:647, 3245 
0:0:3:662, 3120 
0:0:3:677, 2971 
0:0:3:692, 2813 
0:0:3:707, 2693 
0:0:3:722, 2537 
0:0:3:737, 2403 
0:0:3:753, 2246 
0:0:3:769, 2136 
0:0:3:785, 2055 
0:0:3:801, 2004 
0:0:3:817, 1984 
0:0:3:832, 1981 
0:0:3:847, 1989 
0:0:3:862, 2010 
0:0:3:877, 2036 
0:0:3:893, 2053 
0:0:3:909, 2067 
0:0:3:925, 2067 
0:0:3:941, 2062 
0:0:3:957, 2042 
0:0:3:972, 2003 
0:0:3:988, 1952 
0:0:4:3, 1897 
0:0:4:19, 1839 
0:0:4:34, 1781 
0:0:4:50, 1738 
0:0:4:65, 1686 
0:0:4:80, 1638 
0:0:4:95, 1594 
0:0:4:111, 1562 
0:0:4:127, 1540 
0:0:4:143, 1522 
0:0:4:158, 1501 
0:0:4:174, 1486 
0:0:4:190, 1481 
0:0:4:206, 1468 
0:0:4:221, 1461 
0:0:4:237, 1458 
0:0:4:253, 1460 
0:0:4:268, 1456 
0:0:4:284, 1451 
0:0:4:299, 1448 
0:0:4:314, 1449 
0:0:4:329, 1452 
0:0:4:345, 1449 
0:0:4:360, 1447 
0:0:4:375, 1451 
0:0:4:391, 1445 
0:0:4:407, 1442 
0:0:4:423, 1463 
0:0:4:439, 1545 
0:0:4:455, 1664 
0:0:4:471, 1837 
0:0:4:487, 2059 
0:0:4:502, 2312 
0:0:4:517, 2657 
0:0:4:533, 2900 
0:0:4:548, 3213 
0:0:4:564, 3343 
0:0:4:580, 3424 
0:0:4:595, 3414 
0:0:4:611, 3324 
0:0:4:626, 3189 
0:0:4:642, 3073 
0:0:4:658, 2911 
0:0:4:673, 2833 
0:0:4:689, 2724 
0:0:4:705, 2592 
0:0:4:720, 2468 
0:0:4:735, 2343 
0:0:4:751, 2228 
0:0:4:766, 2136 
0:0:4:781, 2071 
0:0:4:797, 2025 
0:0:4:813, 2008 
0:0:4:829, 2014 
0:0:4:845, 2037 
0:0:4:861, 2066 
0:0:4:877, 2092 
0:0:4:892, 2112 
0:0:4:908, 2121 
0:0:4:924, 2101 
0:0:4:940, 2058 
0:0:4:956, 2022 
0:0:4:972, 1965 
0:0:4:988, 1907 
0:0:5:3, 1844 
0:0:5:18, 1798 
0:0:5:34, 1742 
0:0:5:50, 1687 
0:0:5:65, 1640 
0:0:5:80, 1603 
0:0:5:96, 1578 
0:0:5:112, 1547 
0:0:5:127, 1529 
0:0:5:143, 1503 
0:0:5:159, 1476 
0:0:5:174, 1454 
0:0:5:189, 1440 
0:0:5:205, 1423 
0:0:5:221, 1419 
0:0:5:236, 1422 
0:0:5:251, 1421 
0:0:5:266, 1420 
0:0:5:281, 1423 
0:0:5:296, 1432 
0:0:5:311, 1443 
0:0:5:326, 1447 
0:0:5:341, 1444 
0:0:5:357, 1433 
0:0:5:373, 1426 
0:0:5:389, 1430 
0:0:5:406, 1447 
0:0:5:422, 1510 
0:0:5:438, 1667 
0:0:5:454, 1922 
0:0:5:469, 2238 
0:0:5:484, 2586 
0:0:5:500, 2839 
0:0:5:515, 3148 
0:0:5:530, 3336 
0:0:5:545, 3416 
0:0:5:561, 3398 
0:0:5:577, 3303 
0:0:5:593, 3128 
0:0:5:609, 2970 
0:0:5:625, 2811 
0:0:5:640, 2660 
0:0:5:655, 2518 
0:0:5:671, 2363 
0:0:5:687, 2258 
0:0:5:702, 2195 
0:0:5:717, 2121 
0:0:5:733, 2065 
0:0:5:749, 2038 
0:0:5:764, 2047 
0:0:5:779, 2072 
0:0:5:795, 2099 
0:0:5:811, 2121 
0:0:5:827, 2139 
0:0:5:843, 2142 
0:0:5:859, 2118 
0:0:5:875, 2088 
0:0:5:891, 2078 
0:0:5:907, 2068 
0:0:5:922, 2043 
0:0:5:937, 2015 
0:0:5:952, 1958 
0:0:5:968, 1900 
0:0:5:984, 1836 
0:0:6:0, 1778 
0:0:6:16, 1729 
0:0:6:32, 1684 
0:0:6:48, 1647 
0:0:6:64, 1616 
0:0:6:80, 1585 
0:0:6:96, 1553 
0:0:6:112, 1532 
0:0:6:127, 1519 
0:0:6:142, 1506 
0:0:6:158, 1490 
0:0:6:173, 1474 
0:0:6:188, 1468 
0:0:6:203, 1466 
0:0:6:219, 1461 
0:0:6:235, 1458 
0:0:6:251, 1456 
0:0:6:267, 1456 
0:0:6:283, 1463 
0:0:6:299, 1467 
0:0:6:315, 1469 
0:0:6:331, 1467 
0:0:6:347, 1463 
0:0:6:362, 1464 
0:0:6:378, 1491 
0:0:6:394, 1555 
0:0:6:409, 1711 
0:0:6:424, 2018 
0:0:6:439, 2253 
0:0:6:455, 2589 
0:0:6:471, 2828 
0:0:6:487, 3039 
0:0:6:503, 3253 
0:0:6:519, 3370 
0:0:6:534, 3434 
0:0:6:549, 3396 
0:0:6:565, 3287 
0:0:6:581, 3145 
0:0:6:597, 3028 
0:0:6:613, 2834 
0:0:6:628, 2675 
0:0:6:643, 2526 
0:0:6:658, 2427 
0:0:6:673, 2280 
0:0:6:688, 2178 
0:0:6:704, 2116 
0:0:6:720, 2079 
0:0:6:735, 2027 
0:0:6:751, 2014 
0:0:6:766, 2036 
0:0:6:781, 2072 
0:0:6:797, 2097 
0:0:6:812, 2127 
0:0:6:828, 2138 
0:0:6:844, 2126 
0:0:6:860, 2085 
0:0:6:875, 2043 
0:0:6:890, 1990 
0:0:6:906, 1928 
0:0:6:922, 1851 
0:0:6:937, 1807 
0:0:6:952, 1752 
0:0:6:967, 1706 
0:0:6:983, 1666 
0:0:6:998, 1628 
0:0:7:14, 1585 
0:0:7:30, 1568 
0:0:7:46, 1552 
0:0:7:62, 1538 
0:0:7:78, 1522 
0:0:7:94, 1510 
0:0:7:109, 1496 
0:0:7:124, 1488 
0:0:7:140, 1487 
0:0:7:156, 1479 
0:0:7:172, 1465 
0:0:7:187, 1458 
0:0:7:202, 1457 
0:0:7:218, 1465 
0:0:7:234, 1466 
0:0:7:250, 1460 
0:0:7:266, 1462 
0:0:7:282, 1465 
0:0:7:297, 1505 
0:0:7:313, 1623 
0:0:7:329, 1892 
0:0:7:344, 2111 
0:0:7:359, 2441 
0:0:7:374, 2770 
0:0:7:389, 3047 
0:0:7:405, 3316 
0:0:7:421, 3369 
0:0:7:436, 3347 
0:0:7:451, 3260 
0:0:7:467, 3119 
0:0:7:483, 2915 
0:0:7:499, 2753 
0:0:7:514, 2596 
0:0:7:530, 2459 
0:0:7:545, 2333 
0:0:7:561, 2243 
0:0:7:576, 2166 
0:0:7:591, 2086 
0:0:7:607, 2037 
0:0:7:623, 1994 
0:0:7:639, 1986 
0:0:7:655, 2013 
0:0:7:671, 2050 
0:0:7:687, 2096 
0:0:7:702, 2136 
0:0:7:718, 2159 
0:0:7:733, 2141 
0:0:7:748, 2109 
0:0:7:764, 2081 
0:0:7:780, 2033 
0:0:7:795, 1973 
0:0:7:810, 1923 
0:0:7:825, 1855 
0:0:7:840, 1795 
0:0:7:856, 1755 
0:0:7:872, 1698 
0:0:7:888, 1659 
0:0:7:904, 1621 
0:0:7:920, 1586 
0:0:7:936, 1562 
0:0:7:951, 1555 
0:0:7:967, 1548 
0:0:7:983, 1537 
0:0:7:998, 1528 
0:0:8:13, 1517 
0:0:8:28, 1503 
0:0:8:43, 1488 
0:0:8:58, 1485 
0:0:8:73, 1481 
0:0:8:89, 1474 
0:0:8:105, 1472 
0:0:8:121, 1471 
0:0:8:137, 1473 
0:0:8:153, 1478 
0:0:8:169, 1479 
0:0:8:185, 1476 
0:0:8:200, 1476 
0:0:8:215, 1491 
0:0:8:231, 1554 
0:0:8:247, 1706 
0:0:8:263, 1956 
0:0:8:278, 2274 
0:0:8:294, 2623 
0:0:8:310, 2871 
0:0:8:326, 3172 
0:0:8:341, 3356 
0:0:8:356, 3419 
0:0:8:372, 3418 
0:0:8:387, 3361 
0:0:8:403, 3269 
0:0:8:419, 3124 
0:0:8:435, 2967 
0:0:8:451, 2806 
0:0:8:467, 2651 
0:0:8:483, 2474 
0:0:8:498, 2381 
0:0:8:513, 2272 
0:0:8:528, 2173 
0:0:8:543, 2096 
0:0:8:558, 2051 
0:0:8:574, 2039 
0:0:8:590, 2040 
0:0:8:605, 2044 
0:0:8:620, 2054 
0:0:8:636, 2063 
0:0:8:652, 2092 
0:0:8:668, 2107 
0:0:8:685, 2114 
0:0:8:700, 2121 
0:0:8:715, 2129 
0:0:8:731, 2126 
0:0:8:746, 2125 
0:0:8:761, 2113 
0:0:8:777, 2086 
0:0:8:793, 2077 
0:0:8:809, 2029 
0:0:8:825, 1975 
0:0:8:841, 1919 
0:0:8:856, 1880 
0:0:8:871, 1824 
0:0:8:886, 1768 
0:0:8:902, 1715 
0:0:8:917, 1650 
0:0:8:933, 1608 
0:0:8:949, 1573 
0:0:8:965, 1551 
0:0:8:980, 1537 
0:0:8:995, 1523 
0:0:9:10, 1510 
0:0:9:26, 1503 
0:0:9:42, 1496 
0:0:9:57, 1482 
0:0:9:73, 1472 
0:0:9:89, 1469 
0:0:9:105, 1467 
0:0:9:120, 1472 
0:0:9:136, 1479 
0:0:9:151, 1482 
0:0:9:167, 1485 
0:0:9:183, 1485 
0:0:9:198, 1631 
0:0:9:213, 1827 
0:0:9:228, 2106 
0:0:9:243, 2527 
0:0:9:259, 2860 
0:0:9:275, 3163 
0:0:9:291, 3374 
0:0:9:306, 3416 
0:0:9:321, 3385 
0:0:9:337, 3280 
0:0:9:352, 3132 
0:0:9:368, 2920 
0:0:9:384, 2761 
0:0:9:399, 2621 
0:0:9:415, 2498 
0:0:9:431, 2388 
0:0:9:446, 2284 
0:0:9:461, 2189 
0:0:9:477, 2116 
0:0:9:493, 2065 
0:0:9:509, 2044 
0:0:9:525, 2055 
0:0:9:541, 2073 
0:0:9:556, 2100 
0:0:9:572, 2120 
0:0:9:587, 2124 
0:0:9:603, 2130 
0:0:9:618, 2129 
0:0:9:634, 2124 
0:0:9:650, 2100 
0:0:9:666, 2072 
0:0:9:681, 2023 
0:0:9:696, 1978 
0:0:9:711, 1930 
0:0:9:727, 1857 
0:0:9:743, 1798 
0:0:9:759, 1738 
0:0:9:774, 1690 
0:0:9:789, 1641 
0:0:9:805, 1598 
0:0:9:821, 1571 
0:0:9:836, 1542 
0:0:9:852, 1515 
0:0:9:868, 1495 
0:0:9:884, 1484 
0:0:9:899, 1471 
0:0:9:914, 1470 
0:0:9:929, 1470 
0:0:9:944, 1472 
0:0:9:960, 1479 
0:0:9:976, 1484 
0:0:9:992, 1486 
0:0:10:7, 1485 
0:0:10:22, 1481 
0:0:10:38, 1482 
0:0:10:54, 1483 
0:0:10:69, 1486 
0:0:10:85, 1511 
0:0:10:100, 1604 
0:0:10:115, 1794 
0:0:10:130, 2076 
0:0:10:145, 2419 
0:0:10:160, 2763 
0:0:10:176, 3113 
0:0:10:191, 3324 
0:0:10:207, 3383 
0:0:10:223, 3343 
0:0:10:238, 3233 
0:0:10:254, 3088 
0:0:10:270, 2917 
0:0:10:286, 2743 
0:0:10:302, 2588 
0:0:10:318, 2450 
0:0:10:334, 2299 
0:0:10:350, 2196 
0:0:10:366, 2103 
0:0:10:381, 2024 
0:0:10:396, 1991 
0:0:10:412, 1981 
0:0:10:428, 1993 
0:0:10:444, 2031 
0:0:10:460, 2057 
0:0:10:476, 2088 
0:0:10:492, 2112 
0:0:10:507, 2110 
0:0:10:522, 2084 
0:0:10:538, 2027 
0:0:10:554, 1969 
0:0:10:569, 1909 
0:0:10:585, 1833 
0:0:10:600, 1777 
0:0:10:615, 1732 
0:0:10:630, 1697 
0:0:10:646, 1659 
0:0:10:661, 1633 
0:0:10:676, 1607 
0:0:10:692, 1587 
0:0:10:708, 1572 
0:0:10:724, 1546 
0:0:10:740, 1527 
0:0:10:755, 1520 
0:0:10:771, 1509 
0:0:10:787, 1501 
0:0:10:802, 1504 
0:0:10:818, 1509 
0:0:10:834, 1513 
0:0:10:849, 1509 
0:0:10:864, 3335 
0:0:10:879, 3277 
0:0:10:894, 3160 
0:0:10:910, 3002 
0:0:10:926, 2834 
0:0:10:942, 2675 
0:0:10:958, 2529 
0:0:10:974, 2398 
0:0:10:990, 2250 
0:0:11:5, 2144 
0:0:11:21, 2051 
0:0:11:37, 1966 
0:0:11:53, 1941 
0:0:11:69, 1946 
0:0:11:84, 1977 
0:0:11:100, 2025 
0:0:11:116, 2065 
0:0:11:132, 2089 
0:0:11:148, 2097 
0:0:11:163, 2081 
0:0:11:179, 2050 
0:0:11:194, 2014 
0:0:11:210, 1947 
0:0:11:226, 1895 
0:0:11:242, 1822 
0:0:11:258, 1757 
0:0:11:274, 1700 
0:0:11:290, 1650 
0:0:11:305, 1610 
0:0:11:320, 1567 
0:0:11:335, 1530 
0:0:11:350, 1511 
0:0:11:365, 1484 
0:0:11:380, 1468 
0:0:11:396, 1455 
0:0:11:412, 1451 
0:0:11:428, 1448 
0:0:11:444, 1459 
0:0:11:459, 1466 
0:0:11:475, 1465 
0:0:11:491, 1461 
0:0:11:506, 1458 
0:0:11:522, 1454 
0:0:11:538, 1457 
0:0:11:553, 1471 
0:0:11:568, 1531 
0:0:11:584, 1724 
0:0:11:600, 1982 
0:0:11:616, 2403 
0:0:11:632, 2670 
0:0:11:648, 3063 
0:0:11:664, 3280 
0:0:11:680, 3424 
0:0:11:695, 3431 
0:0:11:711, 3390 
0:0:11:727, 3272 
0:0:11:742, 3108 
0:0:11:757, 2937 
0:0:11:773, 2737 
0:0:11:788, 2597 
0:0:11:804, 2477 
0:0:11:820, 2369 
0:0:11:836, 2259 
0:0:11:851, 2170 
0:0:11:866, 2102 
0:0:11:881, 2052 
0:0:11:896, 2024 
0:0:11:912, 2023 
0:0:11:927, 2035 
0:0:11:943, 2047 
0:0:11:958, 2071 
0:0:11:974, 2093 
0:0:11:989, 2092 
0:0:12:5, 2070 
0:0:12:20, 2029 
0:0:12:35, 1988 
0:0:12:50, 1939 
0:0:12:65, 1879 
0:0:12:80, 1816 
0:0:12:96, 1759 
0:0:12:112, 1681 
0:0:12:128, 1641 
0:0:12:144, 1607 
0:0:12:160, 1555 
0:0:12:176, 1520 
0:0:12:191, 1494 
0:0:12:206, 1471 
0:0:12:222, 1456 
0:0:12:238, 1437 
0:0:12:254, 1428 
0:0:12:269, 1422 
0:0:12:285, 1420 
0:0:12:300, 1419 
0:0:12:316, 1423 
0:0:12:332, 1426 
0:0:12:348, 1429 
0:0:12:364, 1432 
0:0:12:380, 1428 
0:0:12:395, 1423 
0:0:12:411, 1425 
0:0:12:427, 1446 
0:0:12:443, 1535 
0:0:12:459, 1788 
0:0:12:475, 2092 
0:0:12:490, 2720 
0:0:12:505, 3037 
0:0:12:520, 3330 
0:0:12:536, 3388 
0:0:12:552, 3374 
0:0:12:568, 3276 
0:0:12:584, 3128 
0:0:12:599, 2916 
0:0:12:614, 2754 
0:0:12:630, 2584 
0:0:12:646, 2462 
0:0:12:662, 2345 
0:0:12:678, 2235 
0:0:12:694, 2131 
0:0:12:710, 2033 
0:0:12:725, 1982 
0:0:12:740, 1968 
0:0:12:755, 1962 
0:0:12:772, 1973 
0:0:12:787, 1990 
0:0:12:802, 1997 
0:0:12:818, 1997 
0:0:12:833, 2012 
0:0:12:849, 2046 
0:0:12:864, 2071 
0:0:12:880, 2075 
0:0:12:896, 2063 
0:0:12:912, 2032 
0:0:12:927, 1993 
0:0:12:942, 1944 
0:0:12:957, 1916 
0:0:12:972, 1852 
0:0:12:988, 1790 
0:0:13:3, 1726 
0:0:13:19, 1651 
0:0:13:35, 1597 
0:0:13:50, 1563 
0:0:13:66, 1527 
0:0:13:82, 1510 
0:0:13:98, 1490 
0:0:13:114, 1473 
0:0:13:130, 1454 
0:0:13:146, 1441 
0:0:13:162, 1427 
0:0:13:177, 1419 
0:0:13:192, 1418 
0:0:13:207, 1423 
0:0:13:223, 1434 
0:0:13:239, 1444 
0:0:13:255, 1446 
0:0:13:271, 1440 
0:0:13:287, 1444 
0:0:13:303, 1480 
0:0:13:319, 1619 
0:0:13:335, 1841 
0:0:13:351, 2148 
0:0:13:367, 2494 
0:0:13:383, 2834 
0:0:13:398, 3141 
0:0:13:414, 3340 
0:0:13:429, 3374 
0:0:13:444, 3314 
0:0:13:460, 3181 
0:0:13:476, 2962 
0:0:13:492, 2781 
0:0:13:507, 2611 
0:0:13:522, 2462 
0:0:13:538, 2296 
0:0:13:554, 2179 
0:0:13:569, 2082 
0:0:13:584, 2005 
0:0:13:599, 1950 
0:0:13:614, 1925 
0:0:13:629, 1926 
0:0:13:645, 1961 
0:0:13:660, 1999 
0:0:13:675, 2058 
0:0:13:691, 2090 
0:0:13:706, 2102 
0:0:13:721, 2094 
0:0:13:736, 2066 
0:0:13:752, 2020 
0:0:13:768, 1951 
0:0:13:784, 1873 
0:0:13:800, 1840 
0:0:13:816, 1758 
0:0:13:831, 1699 
0:0:13:847, 1644 
0:0:13:863, 1603 
0:0:13:879, 1567 
0:0:13:894, 1535 
0:0:13:909, 1509 
0:0:13:925, 1487 
0:0:13:940, 1464 
0:0:13:956, 1442 
0:0:13:972, 1432 
0:0:13:988, 1423 
0:0:14:3, 1427 
0:0:14:18, 1429 
0:0:14:33, 1436 
0:0:14:49, 1435 
0:0:14:65, 1426 
0:0:14:81, 1421 
0:0:14:96, 1439 
0:0:14:111, 1519 
0:0:14:126, 1637 
0:0:14:141, 1886 
0:0:14:156, 2222 
0:0:14:172, 2593 
0:0:14:188, 3023 
0:0:14:204, 3319 
0:0:14:220, 3447 
0:0:14:236, 3473 
0:0:14:252, 3383 
0:0:14:268, 3238 
0:0:14:283, 3061 
0:0:14:298, 2878 
0:0:14:314, 2669 
0:0:14:330, 2491 
0:0:14:346, 2364 
0:0:14:361, 2248 
0:0:14:376, 2130 
0:0:14:392, 2071 
0:0:14:407, 2011 
0:0:14:423, 1984 
0:0:14:439, 1979 
0:0:14:455, 2002 
0:0:14:471, 2034 
0:0:14:487, 2066 
0:0:14:502, 2081 
0:0:14:518, 2079 
0:0:14:533, 2052 
0:0:14:548, 2011 
0:0:14:564, 1948 
0:0:14:580, 1888 
0:0:14:595, 1812 
0:0:14:610, 1754 
0:0:14:625, 1710 
0:0:14:641, 1659 
0:0:14:657, 1610 
0:0:14:672, 1562 
0:0:14:688, 1522 
0:0:14:704, 1490 
0:0:14:719, 1468 
0:0:14:734, 1455 
0:0:14:750, 1447 
0:0:14:766, 1433 
0:0:14:782, 1427 
0:0:14:797, 1415 
0:0:14:813, 1409 
0:0:14:828, 1410 
0:0:14:843, 1409 
0:0:14:859, 1405 
0:0:14:875, 1408 
0:0:14:891, 1411 
0:0:14:907, 1417 
0:0:14:923, 1433 
0:0:14:939, 1495 
0:0:14:955, 1704 
0:0:14:971, 1986 
0:0:14:987, 2435 
0:0:15:3, 2805 
0:0:15:18, 3118 
0:0:15:34, 3354 
0:0:15:49, 3428 
0:0:15:64, 3401 
0:0:15:79, 3294 
0:0:15:95, 3138 
0:0:15:110, 2960 
0:0:15:125, 2739 
0:0:15:140, 2617 
0:0:15:155, 2474 
0:0:15:171, 2348 
0:0:15:187, 2200 
0:0:15:202, 2097 
0:0:15:218, 2016 
0:0:15:234, 1956 
0:0:15:250, 1945 
0:0:15:266, 1955 
0:0:15:282, 1982 
0:0:15:298, 2020 
0:0:15:313, 2058 
0:0:15:328, 2097 
0:0:15:344, 2104 
0:0:15:360, 2076 
0:0:15:376, 2024 
0:0:15:392, 1955 
0:0:15:408, 1889 
0:0:15:424, 1800 
0:0:15:440, 1733 
0:0:15:456, 1679 
0:0:15:472, 1639 
0:0:15:488, 1602 
0:0:15:504, 1558 
0:0:15:520, 1508 
0:0:15:535, 1483 
0:0:15:550, 1460 
0:0:15:566, 1440 
0:0:15:582, 1434 
0:0:15:597, 1430 
0:0:15:613, 1428 
0:0:15:629, 1429 
0:0:15:644, 1432 
0:0:15:660, 1440 
0:0:15:675, 1444 
0:0:15:690, 1451 
0:0:15:705, 1457 
0:0:15:721, 1465 
0:0:15:737, 1509 
0:0:15:753, 1629 
0:0:15:768, 1907 
0:0:15:783, 2228 
0:0:15:799, 2584 
0:0:15:815, 2913 
0:0:15:831, 3194 
0:0:15:846, 3359 
0:0:15:861, 3364 
0:0:15:876, 3317 
0:0:15:892, 3197 
0:0:15:908, 2986 
0:0:15:924, 2805 
0:0:15:940, 2647 
0:0:15:956, 2460 
0:0:15:972, 2324 
0:0:15:988, 2173 
0:0:16:4, 2074 
0:0:16:19, 1995 
0:0:16:35, 1960 
0:0:16:51, 1950 
0:0:16:67, 1979 
0:0:16:82, 2010 
0:0:16:97, 2072 
0:0:16:113, 2113 
0:0:16:128, 2118 
0:0:16:144, 2100 
0:0:16:160, 2077 
0:0:16:175, 2022 
0:0:16:191, 1977 
0:0:16:207, 1918 
0:0:16:223, 1853 
0:0:16:238, 1785 
0:0:16:253, 1718 
0:0:16:269, 1655 
0:0:16:285, 1610 
0:0:16:300, 1583 
0:0:16:316, 1549 
0:0:16:332, 1529 
0:0:16:348, 1509 
0:0:16:364, 1495 
0:0:16:380, 1483 
0:0:16:395, 1475 
0:0:16:411, 1475 
0:0:16:427, 1477 
0:0:16:443, 1482 
0:0:16:458, 1494 
0:0:16:473, 1493 
0:0:16:488, 1489 
0:0:16:504, 1506 
0:0:16:520, 1583 
0:0:16:536, 1751 
0:0:16:552, 2105 
0:0:16:568, 2453 
0:0:16:584, 2879 
0:0:16:600, 3177 
0:0:16:616, 3376 
0:0:16:632, 3410 
0:0:16:648, 3318 
0:0:16:664, 3184 
0:0:16:679, 3015 
0:0:16:694, 2882 
0:0:16:709, 2709 
0:0:16:724, 2564 
0:0:16:739, 2433 
0:0:16:755, 2319 
0:0:16:771, 2221 
0:0:16:786, 2111 
0:0:16:802, 2059 
0:0:16:818, 2001 
0:0:16:834, 1979 
0:0:16:850, 1993 
0:0:16:866, 2015 
0:0:16:882, 2038 
0:0:16:897, 2060 
0:0:16:913, 2071 
0:0:16:929, 2062 
0:0:16:944, 2051 
0:0:16:958, 2021 
0:0:16:974, 1973 
0:0:16:990, 1921 
0:0:17:5, 1840 
0:0:17:21, 1776 
0:0:17:37, 1716 
0:0:17:52, 1659 
0:0:17:68, 1614 
0:0:17:83, 1572 
0:0:17:99, 1538 
0:0:17:114, 1519 
0:0:17:130, 1498 
0:0:17:146, 1476 
0:0:17:161, 1468 
0:0:17:176, 1465 
0:0:17:191, 1473 
0:0:17:206, 1475 
0:0:17:222, 1479 
0:0:17:238, 1484 
0:0:17:254, 1482 
0:0:17:269, 1470 
0:0:17:284, 1464 
0:0:17:300, 1467 
0:0:17:316, 1496 
0:0:17:332, 1590 
0:0:17:348, 1786 
0:0:17:364, 2081 
0:0:17:379, 2427 
0:0:17:394, 2774 
0:0:17:409, 3070 
0:0:17:424, 3295 
0:0:17:440, 3373 
0:0:17:456, 3321 
0:0:17:472, 3204 
0:0:17:487, 3052 
0:0:17:503, 2884 
0:0:17:519, 2686 
0:0:17:535, 2577 
0:0:17:551, 2415 
0:0:17:566, 2295 
0:0:17:581, 2183 
0:0:17:596, 2088 
0:0:17:612, 1995 
0:0:17:628, 1944 
0:0:17:643, 1929 
0:0:17:658, 1941 
0:0:17:674, 1969 
0:0:17:690, 2011 
0:0:17:706, 2030 
0:0:17:722, 2042 
0:0:17:738, 2043 
0:0:17:754, 2024 
0:0:17:769, 1993 
0:0:17:785, 1950 
0:0:17:800, 1895 
0:0:17:816, 1823 
0:0:17:832, 1742 
0:0:17:848, 1679 
0:0:17:864, 1615 
0:0:17:879, 1582 
0:0:17:895, 1553 
0:0:17:911, 1522 
0:0:17:926, 1508 
0:0:17:941, 1495 
0:0:17:957, 1473 
0:0:17:973, 1462 
0:0:17:989, 1453 
0:0:18:5, 1450 
0:0:18:21, 1459 
0:0:18:37, 1461 
0:0:18:52, 1464 
0:0:18:68, 1468 
0:0:18:83, 1465 
0:0:18:99, 1464 
0:0:18:114, 1469 
0:0:18:129, 1513 
0:0:18:145, 1601 
0:0:18:161, 1869 
0:0:18:177, 2176 
0:0:18:193, 2435 
0:0:18:209, 2842 
0:0:18:225, 3120 
0:0:18:241, 3286 
0:0:18:257, 3288 
0:0:18:273, 3185 
0:0:18:289, 3046 
0:0:18:304, 2879 
0:0:18:320, 2712 
0:0:18:336, 2519 
0:0:18:351, 2416 
0:0:18:366, 2296 
0:0:18:381, 2185 
0:0:18:397, 2110 
0:0:18:413, 2024 
0:0:18:429, 1948 
0:0:18:445, 1926 
0:0:18:461, 1936 
0:0:18:477, 1973 
0:0:18:492, 2039 
0:0:18:507, 2077 
0:0:18:523, 2090 
0:0:18:539, 2087 
0:0:18:555, 2070 
0:0:18:571, 2037 
0:0:18:586, 1989 
0:0:18:601, 1944 
0:0:18:616, 1876 
0:0:18:632, 1798 
0:0:18:648, 1749 
0:0:18:664, 1700 
0:0:18:680, 1646 
0:0:18:695, 1606 
0:0:18:711, 1571 
0:0:18:727, 1547 
0:0:18:743, 1533 
0:0:18:759, 1520 
0:0:18:775, 1513 
0:0:18:791, 1509 
0:0:18:807, 1507 
0:0:18:822, 1515 
0:0:18:837, 1523 
0:0:18:853, 1519 
0:0:18:869, 1511 
0:0:18:885, 1497 
0:0:18:900, 1493 
0:0:18:916, 1506 
0:0:18:932, 1582 
0:0:18:948, 1741 
0:0:18:963, 2000 
0:0:18:979, 2324 
0:0:18:995, 2667 
0:0:19:11, 2970 
0:0:19:26, 3249 
0:0:19:42, 3308 
0:0:19:57, 3256 
0:0:19:72, 3149 
0:0:19:88, 2956 
0:0:19:104, 2788 
0:0:19:120, 2636 
0:0:19:136, 2465 
0:0:19:151, 2342 
0:0:19:166, 2242 
0:0:19:182, 2172 
0:0:19:197, 2081 
0:0:19:212, 2026 
0:0:19:228, 1962 
0:0:19:244, 1944 
0:0:19:260, 1965 
0:0:19:276, 1994 
0:0:19:291, 2035 
0:0:19:307, 2062 
0:0:19:323, 2065 
0:0:19:339, 2050 
0:0:19:355, 2014 
0:0:19:371, 1949 
0:0:19:387, 1904 
0:0:19:402, 1837 
0:0:19:418, 1776 
0:0:19:434, 1711 
0:0:19:449, 1666 
0:0:19:465, 1627 
0:0:19:481, 1589 
0:0:19:497, 1554 
0:0:19:512, 1532 
0:0:19:528, 1513 
0:0:19:544, 1500 
0:0:19:560, 1497 
0:0:19:576, 1491 
0:0:19:592, 1484 
0:0:19:607, 1477 
0:0:19:622, 1476 
0:0:19:637, 1476 
0:0:19:653, 1481 
0:0:19:669, 1482 
0:0:19:685, 1478 
0:0:19:701, 1472 
0:0:19:716, 1464 
0:0:19:732, 1480 
0:0:19:748, 1552 
0:0:19:764, 1761 
0:0:19:780, 2113 
0:0:19:796, 2371 
0:0:19:811, 2635 
0:0:19:826, 2952 
0:0:19:842, 3216 
0:0:19:857, 3323 
0:0:19:872, 3330 
0:0:19:888, 3250 
0:0:19:904, 3074 
0:0:19:920, 2908 
0:0:19:936, 2743 
0:0:19:952, 2568 
0:0:19:968, 2448 
0:0:19:984, 2315 
0:0:19:999, 2247 
0:0:20:15, 2159 
0:0:20:31, 2054 
0:0:20:46, 1992 
0:0:20:61, 1953 
0:0:20:77, 1943 
0:0:20:92, 1970 
0:0:20:108, 2005 
0:0:20:123, 2028 
0:0:20:139, 2039 
0:0:20:155, 2044 
0:0:20:171, 2022 
0:0:20:186, 1990 
0:0:20:202, 1958 
0:0:20:218, 1909 
0:0:20:234, 1833 
0:0:20:249, 1773 
0:0:20:265, 1718 
0:0:20:281, 1668 
0:0:20:296, 1620 
0:0:20:312, 1564 
0:0:20:327, 1536 
0:0:20:342, 1505 
0:0:20:358, 1480 
0:0:20:374, 1465 
0:0:20:390, 1450 
0:0:20:405, 1441 
0:0:20:421, 1435 
0:0:20:437, 1433 
0:0:20:453, 1436 
0:0:20:469, 1440 
0:0:20:485, 1441 
0:0:20:501, 1447 
0:0:20:517, 1459 
0:0:20:533, 1459 
0:0:20:549, 1451 
0:0:20:564, 1451 
0:0:20:579, 1478 
0:0:20:594, 1574 
0:0:20:610, 1774 
0:0:20:626, 2061 
0:0:20:642, 2401 
0:0:20:658, 2741 
0:0:20:674, 3092 
0:0:20:689, 3231 
0:0:20:705, 3256 
0:0:20:720, 3201 
0:0:20:735, 3083 
0:0:20:751, 2925 
0:0:20:766, 2760 
0:0:20:781, 2603 
0:0:20:796, 2456 
0:0:20:811, 2320 
0:0:20:826, 2230 
0:0:20:842, 2102 
0:0:20:858, 2015 
0:0:20:874, 1957 
0:0:20:889, 1920 
0:0:20:905, 1909 
0:0:20:921, 1930 
0:0:20:937, 1952 
0:0:20:953, 1996 
0:0:20:969, 2024 
0:0:20:985, 2050 
0:0:21:0, 2049 
0:0:21:16, 2027 
0:0:21:31, 1985 
0:0:21:46, 1946 
0:0:21:61, 1889 
0:0:21:76, 1828 
0:0:21:92, 1772 
0:0:21:108, 1724 
0:0:21:123, 1663 
0:0:21:139, 1618 
0:0:21:155, 1584 
0:0:21:171, 1551 
0:0:21:187, 1538 
0:0:21:203, 1522 
0:0:21:219, 1510 
0:0:21:235, 1491 
0:0:21:251, 1473 
0:0:21:266, 1464 
0:0:21:281, 1455 
0:0:21:296, 1451 
0:0:21:312, 1445 
0:0:21:328, 1436 
0:0:21:343, 1432 
0:0:21:359, 1430 
0:0:21:375, 1454 
0:0:21:391, 1545 
0:0:21:407, 1721 
0:0:21:423, 2061 
0:0:21:439, 2311 
0:0:21:455, 2646 
0:0:21:471, 2995 
0:0:21:486, 3198 
0:0:21:501, 3250 
0:0:21:516, 3210 
0:0:21:531, 3095 
0:0:21:546, 2917 
0:0:21:561, 2756 
0:0:21:576, 2594 
0:0:21:592, 2408 
0:0:21:608, 2280 
0:0:21:623, 2153 
0:0:21:639, 2073 
0:0:21:655, 2018 
0:0:21:671, 1940 
0:0:21:687, 1905 
0:0:21:703, 1891 
0:0:21:719, 1904 
0:0:21:734, 1947 
0:0:21:749, 1981 
0:0:21:765, 2010 
0:0:21:781, 2013 
0:0:21:796, 1989 
0:0:21:812, 1943 
0:0:21:827, 1889 
0:0:21:843, 1838 
0:0:21:859, 1785 
0:0:21:875, 1736 
0:0:21:891, 1681 
0:0:21:906, 1628 
0:0:21:921, 1586 
0:0:21:937, 1534 
0:0:21:953, 1496 
0:0:21:968, 1470 
0:0:21:983, 1443 
0:0:21:998, 1427 
0:0:22:14, 1416 
0:0:22:30, 1408 
0:0:22:46, 1409 
0:0:22:62, 1412 
0:0:22:78, 1414 
0:0:22:94, 1412 
0:0:22:110, 1408 
0:0:22:126, 1409 
0:0:22:142, 1411 
0:0:22:158, 1407 
0:0:22:174, 1399 
0:0:22:190, 1408 
0:0:22:205, 1467 
0:0:22:220, 1614 
0:0:22:235, 1950 
0:0:22:251, 2294 
0:0:22:267, 2647 
0:0:22:283, 2960 
0:0:22:299, 3219 
0:0:22:315, 3313 
0:0:22:330, 3308 
0:0:22:346, 3196 
0:0:22:362, 3051 
0:0:22:378, 2891 
0:0:22:393, 2725 
0:0:22:409, 2572 
0:0:22:425, 2409 
0:0:22:440, 2297 
0:0:22:455, 2203 
0:0:22:471, 2134 
0:0:22:487, 2031 
0:0:22:502, 1983 
0:0:22:518, 1960 
0:0:22:534, 1956 
0:0:22:550, 1976 
0:0:22:566, 2006 
0:0:22:583, 2035 
0:0:22:599, 2042 
0:0:22:615, 2029 
0:0:22:631, 1997 
0:0:22:647, 1955 
0:0:22:663, 1900 
0:0:22:678, 1863 
0:0:22:693, 1805 
0:0:22:709, 1751 
0:0:22:725, 1689 
0:0:22:741, 1640 
0:0:22:756, 1597 
0:0:22:771, 1559 
0:0:22:787, 1508 
0:0:22:802, 1478 
0:0:22:818, 1445 
0:0:22:834, 1416 
0:0:22:850, 1402 
0:0:22:866, 1402 
0:0:22:882, 1401 
0:0:22:897, 1396 
0:0:22:912, 1400 
0:0:22:927, 1401 
0:0:22:942, 1400 
0:0:22:958, 1406 
0:0:22:974, 1407 
0:0:22:989, 1401 
0:0:23:5, 1400 
0:0:23:21, 1416 
0:0:23:37, 1515 
0:0:23:53, 1696 
0:0:23:68, 2041 
0:0:23:84, 2286 
0:0:23:99, 2624 
0:0:23:115, 2995 
0:0:23:131, 3213 
0:0:23:146, 3283 
0:0:23:161, 3259 
0:0:23:176, 3157 
0:0:23:192, 3016 
0:0:23:208, 2859 
0:0:23:224, 2701 
0:0:23:239, 2549 
0:0:23:254, 2443 
0:0:23:269, 2319 
0:0:23:284, 2210 
0:0:23:300, 2130 
0:0:23:316, 2036 
0:0:23:331, 1973 
0:0:23:347, 1934 
0:0:23:363, 1917 
0:0:23:378, 1931 
0:0:23:393, 1959 
0:0:23:408, 2024 
0:0:23:423, 2061 
0:0:23:438, 2072 
0:0:23:454, 2065 
0:0:23:469, 2043 
0:0:23:485, 1990 
0:0:23:501, 1942 
0:0:23:517, 1884 
0:0:23:532, 1825 
0:0:23:547, 1771 
0:0:23:563, 1719 
0:0:23:579, 1659 
0:0:23:595, 1616 
0:0:23:610, 1558 
0:0:23:625, 1523 
0:0:23:641, 1501 
0:0:23:657, 1486 
0:0:23:673, 1474 
0:0:23:688, 1463 
0:0:23:703, 1459 
0:0:23:719, 1456 
0:0:23:735, 1456 
0:0:23:751, 1461 
0:0:23:766, 1468 
0:0:23:782, 1475 
0:0:23:798, 1473 
0:0:23:814, 1458 
0:0:23:830, 1458 
0:0:23:845, 1538 
0:0:23:860, 1700 
0:0:23:876, 1949 
0:0:23:892, 2262 
0:0:23:908, 2590 
0:0:23:924, 2883 
0:0:23:940, 3140 
0:0:23:955, 3263 
0:0:23:971, 3254 
0:0:23:987, 3139 
0:0:24:2, 2999 
0:0:24:18, 2793 
0:0:24:34, 2598 
0:0:24:50, 2453 
0:0:24:66, 2282 
0:0:24:81, 2161 
0:0:24:97, 2058 
0:0:24:113, 1959 
0:0:24:128, 1921 
0:0:24:144, 1902 
0:0:24:160, 1906 
0:0:24:176, 1933 
0:0:24:191, 1972 
0:0:24:206, 2008 
0:0:24:221, 2035 
0:0:24:236, 2046 
0:0:24:251, 2037 
0:0:24:267, 2004 
0:0:24:283, 1944 
0:0:24:298, 1902 
0:0:24:313, 1829 
0:0:24:328, 1770 
0:0:24:344, 1723 
0:0:24:360, 1685 
0:0:24:376, 1649 
0:0:24:392, 1600 
0:0:24:408, 1571 
0:0:24:423, 1540 
0:0:24:438, 1524 
0:0:24:454, 1492 
0:0:24:469, 1481 
0:0:24:484, 1470 
0:0:24:499, 1462 
0:0:24:515, 1457 
0:0:24:531, 1455 
0:0:24:546, 1452 
0:0:24:561, 1439 
0:0:24:577, 1425 
0:0:24:593, 1419 
0:0:24:609, 1432 
0:0:24:625, 1532 
0:0:24:641, 1716 
0:0:24:656, 1988 
0:0:24:671, 2325 
0:0:24:687, 2756 
0:0:24:704, 3054 
0:0:24:720, 3295 
0:0:24:736, 3382 
0:0:24:752, 3354 
0:0:24:768, 3254 
0:0:24:783, 3107 
0:0:24:798, 2983 
0:0:24:813, 2824 
0:0:24:829, 2643 
0:0:24:844, 2516 
0:0:24:860, 2376 
0:0:24:876, 2269 
0:0:24:891, 2172 
0:0:24:907, 2096 
0:0:24:923, 2042 
0:0:24:939, 2014 
0:0:24:955, 2014 
0:0:24:971, 2033 
0:0:24:987, 2061 
0:0:25:2, 2082 
0:0:25:17, 2096 
0:0:25:32, 2104 
0:0:25:47, 2093 
0:0:25:63, 2055 
0:0:25:79, 2007 
0:0:25:96, 1948 
0:0:25:112, 1873 
0:0:25:128, 1818 
0:0:25:143, 1759 
0:0:25:159, 1715 
0:0:25:175, 1655 
0:0:25:191, 1615 
0:0:25:206, 1578 
0:0:25:222, 1545 
0:0:25:238, 1509 
0:0:25:253, 1493 
0:0:25:268, 1474 
0:0:25:283, 1461 
0:0:25:299, 1452 
0:0:25:315, 1445 
0:0:25:331, 1448 
0:0:25:346, 1455 
0:0:25:361, 1456 
0:0:25:377, 1459 
0:0:25:393, 1465 
0:0:25:408, 1465 
0:0:25:424, 1476 
0:0:25:440, 1543 
0:0:25:455, 1686 
0:0:25:471, 1995 
0:0:25:486, 2319 
0:0:25:501, 2653 
0:0:25:517, 3012 
0:0:25:533, 3244 
0:0:25:549, 3277 
0:0:25:564, 3245 
0:0:25:579, 3108 
0:0:25:594, 2955 
0:0:25:610, 2799 
0:0:25:626, 2644 
0:0:25:641, 2500 
0:0:25:657, 2373 
0:0:25:673, 2224 
0:0:25:689, 2120 
0:0:25:705, 2057 
0:0:25:720, 1989 
0:0:25:735, 1937 
0:0:25:751, 1909 
0:0:25:766, 1913 
0:0:25:781, 1931 
0:0:25:797, 1957 
0:0:25:813, 1992 
0:0:25:829, 2016 
0:0:25:844, 2031 
0:0:25:859, 2017 
0:0:25:875, 1987 
0:0:25:891, 1940 
0:0:25:906, 1880 
0:0:25:922, 1822 
0:0:25:938, 1765 
0:0:25:953, 1709 
0:0:25:968, 1658 
0:0:25:983, 1609 
0:0:25:999, 1562 
0:0:26:15, 1528 
0:0:26:31, 1497 
0:0:26:47, 1469 
0:0:26:63, 1453 
0:0:26:79, 1434 
0:0:26:94, 1426 
0:0:26:109, 1417 
0:0:26:124, 1408 
0:0:26:140, 1403 
0:0:26:156, 1403 
0:0:26:172, 1409 
0:0:26:187, 1412 
0:0:26:203, 1414 
0:0:26:219, 1424 
0:0:26:235, 1444 
0:0:26:251, 1531 
0:0:26:267, 1698 
0:0:26:283, 2022 
0:0:26:298, 2341 
0:0:26:313, 2668 
0:0:26:329, 2943 
0:0:26:345, 3190 
0:0:26:360, 3232 
0:0:26:376, 3202 
0:0:26:392, 3104 
0:0:26:408, 3000 
0:0:26:423, 2838 
0:0:26:438, 2675 
0:0:26:453, 2554 
0:0:26:468, 2401 
0:0:26:483, 2266 
0:0:26:499, 2131 
0:0:26:514, 2035 
0:0:26:530, 1944 
0:0:26:546, 1899 
0:0:26:562, 1894 
0:0:26:578, 1925 
0:0:26:593, 1954 
0:0:26:609, 2013 
0:0:26:625, 2055 
0:0:26:641, 2074 
0:0:26:656, 2073 
0:0:26:671, 2039 
0:0:26:686, 1995 
0:0:26:701, 1943 
0:0:26:717, 1878 
0:0:26:732, 1815 
0:0:26:748, 1759 
0:0:26:764, 1692 
0:0:26:780, 1638 
0:0:26:796, 1601 
0:0:26:811, 1561 
0:0:26:827, 1527 
0:0:26:843, 1513 
0:0:26:858, 1498 
0:0:26:874, 1489 
0:0:26:889, 1485 
0:0:26:904, 1479 
0:0:26:920, 1474 
0:0:26:936, 1465 
0:0:26:952, 1463 
0:0:26:968, 1464 
0:0:26:984, 1447 
0:0:27:0, 1433 
0:0:27:16, 1447 
0:0:27:31, 1543 
0:0:27:46, 1744 
0:0:27:62, 2092 
0:0:27:78, 2325 
0:0:27:93, 2610 
0:0:27:109, 2894 
0:0:27:124, 2979 
0:0:27:139, 2971 
0:0:27:154, 2887 
0:0:27:170, 2754 
0:0:27:186, 2563 
0:0:27:201, 2453 
0:0:27:217, 2317 
0:0:27:232, 2171 
0:0:27:248, 2095 
0:0:27:264, 1979 
0:0:27:279, 1900 
0:0:27:294, 1849 
0:0:27:310, 1820 
0:0:27:326, 1820 
0:0:27:342, 1878 
0:0:27:357, 1948 
0:0:27:372, 2027 
0:0:27:388, 2120 
0:0:27:403, 2158 
0:0:27:419, 2188 
0:0:27:435, 2190 
0:0:27:451, 2167 
0:0:27:467, 2110 
0:0:27:482, 2053 
0:0:27:498, 1990 
0:0:27:514, 1916 
0:0:27:530, 1856 
0:0:27:545, 1800 
0:0:27:560, 1745 
0:0:27:576, 1681 
0:0:27:591, 1640 
0:0:27:606, 1618 
0:0:27:622, 1585 
0:0:27:638, 1562 
0:0:27:654, 1544 
0:0:27:670, 1521 
0:0:27:686, 1500 
0:0:27:702, 1481 
0:0:27:718, 1459 
0:0:27:734, 1438 
0:0:27:750, 1419 
0:0:27:766, 1417 
0:0:27:781, 1434 
0:0:27:796, 1468 
0:0:27:812, 1569 
0:0:27:827, 1766 
0:0:27:842, 2061 
0:0:27:858, 2411 
0:0:27:874, 2834 
0:0:27:890, 3131 
0:0:27:906, 3298 
0:0:27:922, 3335 
0:0:27:938, 3268 
0:0:27:954, 3117 
0:0:27:970, 2966 
0:0:27:986, 2779 
0:0:28:1, 2649 
0:0:28:17, 2543 
0:0:28:33, 2419 
0:0:28:49, 2324 
0:0:28:64, 2217 
0:0:28:79, 2142 
0:0:28:95, 2090 
0:0:28:111, 2051 
0:0:28:127, 2037 
0:0:28:142, 2043 
0:0:28:158, 2054 
0:0:28:174, 2061 
0:0:28:190, 2064 
0:0:28:205, 2054 
0:0:28:221, 2033 
0:0:28:237, 1998 
0:0:28:253, 1955 
0:0:28:269, 1885 
0:0:28:285, 1834 
0:0:28:300, 1783 
0:0:28:315, 1734 
0:0:28:330, 1699 
0:0:28:346, 1666 
0:0:28:362, 1629 
0:0:28:378, 1600 
0:0:28:394, 1579 
0:0:28:410, 1561 
0:0:28:426, 1536 
0:0:28:442, 1523 
0:0:28:458, 1514 
0:0:28:474, 1506 
0:0:28:489, 1505 
0:0:28:504, 1513 
0:0:28:520, 1513 
0:0:28:535, 1500 
0:0:28:550, 1490 
0:0:28:565, 1489 
0:0:28:580, 1513 
0:0:28:596, 1632 
0:0:28:611, 1819 
0:0:28:627, 2167 
0:0:28:642, 2499 
0:0:28:658, 2737 
0:0:28:674, 3094 
0:0:28:690, 3252 
0:0:28:706, 3296 
0:0:28:722, 3266 
0:0:28:738, 3162 
0:0:28:754, 2969 
0:0:28:769, 2808 
0:0:28:784, 2659 
0:0:28:800, 2534 
0:0:28:816, 2397 
0:0:28:832, 2289 
0:0:28:848, 2173 
0:0:28:863, 2117 
0:0:28:879, 2057 
0:0:28:895, 2020 
0:0:28:910, 2013 
0:0:28:926, 2026 
0:0:28:942, 2046 
0:0:28:958, 2069 
0:0:28:974, 2079 
0:0:28:990, 2077 
0:0:29:6, 2049 
0:0:29:21, 1997 
0:0:29:36, 1929 
0:0:29:52, 1842 
0:0:29:68, 1799 
0:0:29:84, 1745 
0:0:29:99, 1688 
0:0:29:115, 1646 
0:0:29:131, 1591 
0:0:29:147, 1553 
0:0:29:163, 1516 
0:0:29:179, 1489 
0:0:29:194, 1481 
0:0:29:210, 1477 
0:0:29:226, 1472 
0:0:29:241, 1465 
0:0:29:256, 1459 
0:0:29:272, 1461 
0:0:29:288, 1463 
0:0:29:304, 1468 
0:0:29:320, 1480 
0:0:29:336, 1485 
0:0:29:352, 1493 
0:0:29:368, 1495 
0:0:29:384, 1518 
0:0:29:400, 1589 
0:0:29:416, 1780 
0:0:29:432, 2026 
0:0:29:448, 2321 
0:0:29:464, 2682 
0:0:29:479, 2863 
0:0:29:494, 3053 
0:0:29:509, 3107 
0:0:29:525, 3074 
0:0:29:540, 2977 
0:0:29:556, 2839 
0:0:29:572, 2693 
0:0:29:588, 2510 
0:0:29:604, 2373 
0:0:29:620, 2251 
0:0:29:635, 2138 
0:0:29:650, 2020 
0:0:29:666, 1950 
0:0:29:682, 1901 
0:0:29:697, 1883 
0:0:29:712, 1875 
0:0:29:727, 1884 
0:0:29:742, 1908 
0:0:29:758, 1936 
0:0:29:773, 1960 
0:0:29:789, 1979 
0:0:29:805, 1980 
0:0:29:821, 1958 
0:0:29:836, 1928 
0:0:29:852, 1871 
0:0:29:868, 1820 
0:0:29:884, 1774 
0:0:29:899, 1725 
0:0:29:915, 1668 
0:0:29:931, 1632 
0:0:29:946, 1595 
0:0:29:961, 1560 
0:0:29:976, 1531 
0:0:29:992, 1501 
0:0:30:8, 1483 
0:0:30:24, 1477 
0:0:30:40, 1473 
0:0:30:56, 1467 
0:0:30:72, 1462 
0:0:30:88, 1462 
0:0:30:103, 1462 
0:0:30:119, 1456 
0:0:30:134, 1451 
0:0:30:149, 1461 
0:0:30:165, 1512 
0:0:30:180, 1620 
0:0:30:195, 1801 
0:0:30:211, 2106 
0:0:30:227, 2372 
0:0:30:243, 2658 
0:0:30:259, 2846 
0:0:30:275, 2922 
0:0:30:291, 2901 
0:0:30:307, 2850 
0:0:30:322, 2746 
0:0:30:337, 2580 
0:0:30:352, 2480 
0:0:30:368, 2319 
0:0:30:384, 2200 
0:0:30:399, 2091 
0:0:30:414, 1985 
0:0:30:429, 1919 
0:0:30:445, 1869 
0:0:30:461, 1845 
0:0:30:477, 1850 
0:0:30:492, 1871 
0:0:30:508, 1906 
0:0:30:523, 1933 
0:0:30:539, 1954 
0:0:30:555, 1958 
0:0:30:571, 1932 
0:0:30:586, 1895 
0:0:30:602, 1854 
0:0:30:618, 1805 
0:0:30:634, 1734 
0:0:30:649, 1671 
0:0:30:664, 1612 
0:0:30:680, 1553 
0:0:30:695, 1495 
0:0:30:710, 1462 
0:0:30:725, 1434 
0:0:30:741, 1398 
0:0:30:757, 1359 
0:0:30:773, 1341 
0:0:30:789, 1332 
0:0:30:804, 1332 
0:0:30:819, 1331 
0:0:30:834, 1331 
0:0:30:850, 1324 
0:0:30:866, 1323 
0:0:30:881, 1348 
0:0:30:896, 1417 
0:0:30:912, 1600 
0:0:30:928, 1757 
0:0:30:944, 1937 
0:0:30:959, 2193 
0:0:30:975, 2486 
0:0:30:991, 2674 
0:0:31:6, 2769 
0:0:31:22, 2765 
0:0:31:37, 2698 
0:0:31:52, 2618 
0:0:31:68, 2520 
0:0:31:84, 2397 
0:0:31:100, 2303 
0:0:31:115, 2191 
0:0:31:130, 2123 
0:0:31:146, 2062 
0:0:31:162, 1991 
0:0:31:178, 1930 
0:0:31:193, 1904 
0:0:31:208, 1879 
0:0:31:224, 1878 
0:0:31:240, 1897 
0:0:31:256, 1915 
0:0:31:272, 1924 
0:0:31:288, 1916 
0:0:31:304, 1893 
0:0:31:320, 1861 
0:0:31:336, 1825 
0:0:31:351, 1796 
0:0:31:366, 1756 
0:0:31:382, 1702 
0:0:31:398, 1661 
0:0:31:414, 1628 
0:0:31:430, 1603 
0:0:31:446, 1579 
0:0:31:462, 1549 
0:0:31:478, 1530 
0:0:31:494, 1506 
0:0:31:509, 1494 
0:0:31:525, 1485 
0:0:31:541, 1479 
0:0:31:557, 1474 
0:0:31:573, 1477 
0:0:31:588, 1472 
0:0:31:604, 1471 
0:0:31:619, 1491 
0:0:31:634, 1555 
0:0:31:650, 1726 
0:0:31:666, 1920 
0:0:31:681, 2139 
0:0:31:697, 2400 
0:0:31:713, 2586 
0:0:31:729, 2678 
0:0:31:745, 2708 
0:0:31:761, 2699 
0:0:31:777, 2631 
0:0:31:793, 2541 
0:0:31:808, 2445 
0:0:31:823, 2358 
0:0:31:838, 2280 
0:0:31:853, 2195 
0:0:31:869, 2134 
0:0:31:884, 2073 
0:0:31:900, 1994 
0:0:31:916, 1943 
0:0:31:932, 1904 
0:0:31:947, 1896 
0:0:31:962, 1902 
0:0:31:977, 1917 
0:0:31:993, 1928 
0:0:32:8, 1938 
0:0:32:24, 1939 
0:0:32:40, 1920 
0:0:32:55, 1886 
0:0:32:70, 1846 
0:0:32:85, 1799 
0:0:32:100, 1769 
0:0:32:116, 1727 
0:0:32:132, 1692 
0:0:32:147, 1661 
0:0:32:162, 1631 
0:0:32:177, 1610 
0:0:32:192, 1588 
0:0:32:208, 1564 
0:0:32:224, 1542 
0:0:32:240, 1529 
0:0:32:256, 1524 
0:0:32:272, 1528 
0:0:32:287, 1526 
0:0:32:302, 1518 
0:0:32:318, 1512 
0:0:32:334, 1506 
0:0:32:349, 1500 
0:0:32:364, 1510 
0:0:32:380, 1553 
0:0:32:396, 1642 
0:0:32:412, 1791 
0:0:32:427, 1986 
0:0:32:443, 2202 
0:0:32:459, 2403 
0:0:32:475, 2611 
0:0:32:491, 2686 
0:0:32:507, 2708 
0:0:32:522, 2672 
0:0:32:537, 2604 
0:0:32:552, 2525 
0:0:32:567, 2436 
0:0:32:583, 2355 
0:0:32:599, 2257 
0:0:32:615, 2179 
0:0:32:631, 2090 
0:0:32:647, 2021 
0:0:32:662, 1997 
0:0:32:677, 1971 
0:0:32:693, 1970 
0:0:32:709, 1988 
0:0:32:725, 2017 
0:0:32:741, 2031 
0:0:32:756, 2040 
0:0:32:772, 2039 
0:0:32:787, 2026 
0:0:32:803, 2008 
0:0:32:819, 1978 
0:0:32:835, 1940 
0:0:32:851, 1897 
0:0:32:867, 1858 
0:0:32:883, 1811 
0:0:32:898, 1779 
0:0:32:914, 1743 
0:0:32:930, 1703 
0:0:32:946, 1683 
0:0:32:962, 1660 
0:0:32:977, 1642 
0:0:32:992, 1634 
0:0:33:7, 1626 
0:0:33:23, 1616 
0:0:33:39, 1600 
0:0:33:54, 1586 
0:0:33:70, 1581 
0:0:33:86, 1593 
0:0:33:101, 1650 
0:0:33:117, 1765 
0:0:33:133, 1983 
0:0:33:148, 2196 
0:0:33:164, 2406 
0:0:33:180, 2585 
0:0:33:196, 2678 
0:0:33:211, 2779 
0:0:33:226, 2803 
0:0:33:241, 2793 
0:0:33:257, 2727 
0:0:33:272, 2645 
0:0:33:288, 2554 
0:0:33:304, 2482 
0:0:33:320, 2367 
0:0:33:336, 2285 
0:0:33:352, 2200 
0:0:33:368, 2135 
0:0:33:384, 2075 
0:0:33:400, 2052 
0:0:33:416, 2034 
0:0:33:432, 2033 
0:0:33:448, 2040 
0:0:33:463, 2060 
0:0:33:478, 2075 
0:0:33:494, 2076 
0:0:33:509, 2062 
0:0:33:525, 2030 
0:0:33:541, 1993 
0:0:33:557, 1956 
0:0:33:573, 1902 
0:0:33:589, 1858 
0:0:33:605, 1810 
0:0:33:620, 1771 
0:0:33:635, 1738 
0:0:33:651, 1698 
0:0:33:666, 1671 
0:0:33:682, 1647 
0:0:33:697, 1625 
0:0:33:712, 1607 
0:0:33:728, 1588 
0:0:33:744, 1575 
0:0:33:760, 1569 
0:0:33:776, 1561 
0:0:33:792, 1561 
0:0:33:808, 1560 
0:0:33:824, 1552 
0:0:33:840, 1541 
0:0:33:856, 1532 
0:0:33:872, 1558 
0:0:33:888, 1632 
0:0:33:904, 1829 
0:0:33:920, 2050 
0:0:33:935, 2372 
0:0:33:950, 2618 
0:0:33:966, 2848 
0:0:33:982, 2997 
0:0:33:998, 3035 
0:0:34:13, 3003 
0:0:34:29, 2925 
0:0:34:45, 2796 
0:0:34:61, 2671 
0:0:34:77, 2579 
0:0:34:92, 2481 
0:0:34:108, 2412 
0:0:34:124, 2326 
0:0:34:140, 2262 
0:0:34:155, 2205 
0:0:34:170, 2152 
0:0:34:185, 2133 
0:0:34:200, 2125 
0:0:34:216, 2127 
0:0:34:231, 2141 
0:0:34:247, 2145 
0:0:34:263, 2138 
0:0:34:279, 2115 
0:0:34:295, 2078 
0:0:34:311, 2039 
0:0:34:327, 1997 
0:0:34:343, 1935 
0:0:34:359, 1887 
0:0:34:375, 1824 
0:0:34:391, 1785 
0:0:34:406, 1750 
0:0:34:421, 1722 
0:0:34:436, 1688 
0:0:34:451, 1659 
0:0:34:467, 1635 
0:0:34:483, 1616 
0:0:34:499, 1601 
0:0:34:514, 1596 
0:0:34:529, 1589 
0:0:34:544, 1577 
0:0:34:560, 1570 
0:0:34:576, 1565 
0:0:34:592, 1553 
0:0:34:608, 1542 
0:0:34:623, 1532 
0:0:34:638, 1526 
0:0:34:653, 1523 
0:0:34:669, 1539 
0:0:34:685, 1593 
0:0:34:701, 1708 
0:0:34:716, 1896 
0:0:34:731, 2141 
0:0:34:746, 2481 
0:0:34:762, 2734 
0:0:34:778, 2962 
0:0:34:794, 3073 
0:0:34:810, 3103 
0:0:34:825, 3062 
0:0:34:840, 2972 
0:0:34:856, 2854 
0:0:34:871, 2730 
0:0:34:886, 2612 
0:0:34:901, 2510 
0:0:34:917, 2416 
0:0:34:932, 2336 
0:0:34:948, 2236 
0:0:34:964, 2163 
0:0:34:980, 2114 
0:0:34:996, 2082 
0:0:35:12, 2075 
0:0:35:28, 2084 
0:0:35:44, 2097 
0:0:35:59, 2111 
0:0:35:74, 2119 
0:0:35:90, 2112 
0:0:35:105, 2102 
0:0:35:120, 2078 
0:0:35:135, 2048 
0:0:35:150, 2002 
0:0:35:165, 1950 
0:0:35:181, 1881 
0:0:35:197, 1834 
0:0:35:213, 1787 
0:0:35:229, 1745 
0:0:35:245, 1709 
0:0:35:261, 1672 
0:0:35:277, 1640 
0:0:35:293, 1605 
0:0:35:309, 1586 
0:0:35:325, 1568 
0:0:35:340, 1555 
0:0:35:355, 1548 
0:0:35:371, 1543 
0:0:35:387, 1540 
0:0:35:402, 1543 
0:0:35:418, 1542 
0:0:35:434, 1542 
0:0:35:450, 1542 
0:0:35:466, 1535 
0:0:35:482, 1527 
0:0:35:498, 1542 
0:0:35:513, 1608 
0:0:35:528, 1761 
0:0:35:543, 2058 
0:0:35:559, 2342 
0:0:35:574, 2690 
0:0:35:589, 2944 
0:0:35:605, 3078 
0:0:35:620, 3126 
0:0:35:635, 3085 
0:0:35:651, 2991 
0:0:35:667, 2862 
0:0:35:682, 2721 
0:0:35:698, 2582 
0:0:35:714, 2459 
0:0:35:730, 2352 
0:0:35:746, 2224 
0:0:35:762, 2134 
0:0:35:777, 2041 
0:0:35:792, 2008 
0:0:35:807, 1993 
0:0:35:822, 1996 
0:0:35:838, 2019 
0:0:35:854, 2052 
0:0:35:870, 2088 
0:0:35:886, 2102 
0:0:35:901, 2108 
0:0:35:917, 2093 
0:0:35:932, 2057 
0:0:35:948, 2011 
0:0:35:964, 1946 
0:0:35:980, 1896 
0:0:35:995, 1848 
0:0:36:10, 1791 
0:0:36:26, 1748 
0:0:36:41, 1702 
0:0:36:56, 1672 
0:0:36:71, 1637 
0:0:36:87, 1604 
0:0:36:103, 1589 
0:0:36:119, 1570 
0:0:36:135, 1566 
0:0:36:151, 1562 
0:0:36:166, 1555 
0:0:36:182, 1556 
0:0:36:197, 1554 
0:0:36:212, 1549 
0:0:36:228, 1589 
0:0:36:244, 1733 
0:0:36:260, 1931 
0:0:36:275, 2272 
0:0:36:290, 2570 
0:0:36:305, 2784 
0:0:36:320, 2966 
0:0:36:336, 3180 
0:0:36:352, 3215 
0:0:36:368, 3170 
0:0:36:384, 3041 
0:0:36:400, 2900 
0:0:36:416, 2751 
0:0:36:431, 2576 
0:0:36:446, 2445 
0:0:36:461, 2328 
0:0:36:477, 2216 
0:0:36:493, 2088 
0:0:36:508, 2009 
0:0:36:523, 1966 
0:0:36:539, 1936 
0:0:36:555, 1947 
0:0:36:571, 1978 
0:0:36:587, 2009 
0:0:36:602, 2035 
0:0:36:618, 2048 
0:0:36:633, 2047 
0:0:36:648, 2030 
0:0:36:663, 1992 
0:0:36:678, 1946 
0:0:36:694, 1896 
0:0:36:709, 1845 
0:0:36:725, 1795 
0:0:36:740, 1755 
0:0:36:755, 1705 
0:0:36:771, 1660 
0:0:36:787, 1620 
0:0:36:803, 1589 
0:0:36:819, 1555 
0:0:36:834, 1531 
0:0:36:850, 1516 
0:0:36:865, 1505 
0:0:36:880, 1499 
0:0:36:896, 1493 
0:0:36:912, 1485 
0:0:36:928, 1483 
0:0:36:943, 1481 
0:0:36:958, 1479 
0:0:36:973, 1475 
0:0:36:988, 1471 
0:0:37:3, 1473 
0:0:37:19, 1503 
0:0:37:35, 1594 
0:0:37:51, 1831 
0:0:37:67, 2110 
0:0:37:83, 2438 
0:0:37:98, 2768 
0:0:37:114, 3046 
0:0:37:129, 3238 
0:0:37:144, 3327 
0:0:37:160, 3354 
0:0:37:176, 3291 
0:0:37:192, 3128 
0:0:37:208, 2970 
0:0:37:223, 2807 
0:0:37:238, 2657 
0:0:37:253, 2529 
0:0:37:269, 2408 
0:0:37:284, 2299 
0:0:37:300, 2204 
0:0:37:315, 2119 
0:0:37:330, 2056 
0:0:37:345, 2022 
0:0:37:361, 1992 
0:0:37:376, 1997 
0:0:37:392, 2018 
0:0:37:408, 2046 
0:0:37:424, 2069 
0:0:37:439, 2077 
0:0:37:454, 2067 
0:0:37:470, 2044 
0:0:37:486, 1995 
0:0:37:502, 1945 
0:0:37:517, 1889 
0:0:37:533, 1823 
0:0:37:549, 1788 
0:0:37:565, 1728 
0:0:37:581, 1675 
0:0:37:597, 1621 
0:0:37:612, 1577 
0:0:37:628, 1536 
0:0:37:644, 1508 
0:0:37:660, 1482 
0:0:37:675, 1466 
0:0:37:690, 1460 
0:0:37:706, 1456 
0:0:37:722, 1445 
0:0:37:737, 1437 
0:0:37:753, 1434 
0:0:37:769, 1433 
0:0:37:785, 1436 
0:0:37:800, 1438 
0:0:37:815, 1443 
0:0:37:831, 1452 
0:0:37:847, 1451 
0:0:37:863, 1452 
0:0:37:879, 1496 
0:0:37:894, 1610 
0:0:37:910, 1820 
0:0:37:925, 2114 
0:0:37:940, 2447 
0:0:37:956, 2695 
0:0:37:972, 3081 
0:0:37:987, 3263 
0:0:38:3, 3333 
0:0:38:18, 3307 
0:0:38:33, 3183 
0:0:38:49, 3041 
0:0:38:65, 2832 
0:0:38:81, 2631 
0:0:38:97, 2492 
0:0:38:112, 2366 
0:0:38:128, 2221 
0:0:38:143, 2125 
0:0:38:158, 2062 
0:0:38:174, 1991 
0:0:38:190, 1974 
0:0:38:206, 1975 
0:0:38:222, 2003 
0:0:38:238, 2041 
0:0:38:254, 2079 
0:0:38:270, 2095 
0:0:38:286, 2090 
0:0:38:302, 2061 
0:0:38:317, 2019 
0:0:38:333, 1947 
0:0:38:348, 1904 
0:0:38:364, 1848 
0:0:38:379, 1791 
0:0:38:394, 1741 
0:0:38:410, 1699 
0:0:38:425, 1660 
0:0:38:440, 1631 
0:0:38:456, 1588 
0:0:38:472, 1561 
0:0:38:488, 1534 
0:0:38:504, 1508 
0:0:38:520, 1485 
0:0:38:536, 1469 
0:0:38:552, 1463 
0:0:38:568, 1453 
0:0:38:584, 1446 
0:0:38:599, 1446 
0:0:38:614, 1448 
0:0:38:629, 1455 
0:0:38:644, 1459 
0:0:38:659, 1461 
0:0:38:675, 1474 
0:0:38:691, 1514 
0:0:38:707, 1624 
0:0:38:723, 1819 
0:0:38:739, 2182 
0:0:38:755, 2524 
0:0:38:771, 2849 
0:0:38:786, 3050 
0:0:38:801, 3263 
0:0:38:817, 3330 
0:0:38:833, 3282 
0:0:38:848, 3175 
0:0:38:863, 3028 
0:0:38:878, 2860 
0:0:38:894, 2644 
0:0:38:909, 2487 
0:0:38:924, 2349 
0:0:38:939, 2252 
0:0:38:955, 2104 
0:0:38:971, 2021 
0:0:38:987, 1958 
0:0:39:3, 1928 
0:0:39:18, 1923 
0:0:39:33, 1948 
0:0:39:48, 1992 
0:0:39:64, 2046 
0:0:39:79, 2084 
0:0:39:94, 2104 
0:0:39:110, 2101 
0:0:39:126, 2071 
0:0:39:142, 2031 
0:0:39:158, 1987 
0:0:39:174, 1920 
0:0:39:190, 1876 
0:0:39:205, 1833 
0:0:39:221, 1765 
0:0:39:237, 1711 
0:0:39:253, 1654 
0:0:39:269, 1610 
0:0:39:285, 1572 
0:0:39:301, 1536 
0:0:39:316, 1518 
0:0:39:331, 1504 
0:0:39:347, 1494 
0:0:39:362, 1488 
0:0:39:378, 1488 
0:0:39:394, 1485 
0:0:39:409, 1480 
0:0:39:424, 1480 
0:0:39:440, 1497 
0:0:39:456, 1572 
0:0:39:472, 1792 
0:0:39:488, 2061 
0:0:39:505, 2475 
0:0:39:521, 2800 
0:0:39:537, 3099 
0:0:39:552, 3275 
0:0:39:567, 3335 
0:0:39:582, 3308 
0:0:39:598, 3244 
0:0:39:613, 3112 
0:0:39:629, 2916 
0:0:39:645, 2754 
0:0:39:661, 2597 
0:0:39:677, 2424 
0:0:39:693, 2300 
0:0:39:708, 2183 
0:0:39:724, 2085 
0:0:39:740, 1990 
0:0:39:756, 1949 
0:0:39:771, 1938 
0:0:39:786, 1948 
0:0:39:801, 1973 
0:0:39:817, 2001 
0:0:39:833, 2039 
0:0:39:849, 2051 
0:0:39:865, 2050 
0:0:39:880, 2025 
0:0:39:896, 1993 
0:0:39:911, 1950 
0:0:39:927, 1898 
0:0:39:943, 1845 
0:0:39:959, 1782 
0:0:39:975, 1733 
0:0:39:991, 1674 
0:0:40:7, 1639 
0:0:40:22, 1598 
0:0:40:37, 1562 
0:0:40:53, 1524 
0:0:40:68, 1504 
0:0:40:84, 1484 
0:0:40:100, 1475 
0:0:40:116, 1472 
0:0:40:132, 1469 
0:0:40:148, 1469 
0:0:40:164, 1470 
0:0:40:180, 1467 
0:0:40:195, 1468 
0:0:40:210, 1466 
0:0:40:225, 1471 
0:0:40:241, 1508 
0:0:40:256, 1601 
0:0:40:271, 1782 
0:0:40:287, 2132 
0:0:40:303, 2476 
0:0:40:319, 2817 
0:0:40:334, 3189 
0:0:40:349, 3326 
0:0:40:365, 3395 
0:0:40:381, 3351 
0:0:40:396, 3201 
0:0:40:412, 3044 
0:0:40:428, 2919 
0:0:40:444, 2749 
0:0:40:459, 2595 
0:0:40:474, 2453 
0:0:40:489, 2324 
0:0:40:504, 2189 
0:0:40:519, 2097 
0:0:40:535, 2028 
0:0:40:551, 1978 
0:0:40:567, 1971 
0:0:40:583, 1997 
0:0:40:599, 2025 
0:0:40:614, 2057 
0:0:40:630, 2082 
0:0:40:646, 2088 
0:0:40:662, 2078 
0:0:40:678, 2039 
0:0:40:694, 1990 
0:0:40:710, 1928 
0:0:40:725, 1866 
0:0:40:740, 1806 
0:0:40:756, 1744 
0:0:40:772, 1705 
0:0:40:788, 1665 
0:0:40:804, 1630 
0:0:40:819, 1585 
0:0:40:834, 1558 
0:0:40:850, 1526 
0:0:40:866, 1496 
0:0:40:882, 1484 
0:0:40:898, 1473 
0:0:40:914, 1465 
0:0:40:930, 1457 
0:0:40:945, 1452 
0:0:40:960, 1456 
0:0:40:975, 1464 
0:0:40:990, 1468 
0:0:41:6, 1467 
0:0:41:21, 1459 
0:0:41:36, 1455 
0:0:41:51, 1473 
0:0:41:67, 1550 
0:0:41:83, 1780 
0:0:41:99, 2061 
0:0:41:115, 2394 
0:0:41:131, 2812 
0:0:41:146, 3104 
0:0:41:162, 3240 
0:0:41:177, 3320 
0:0:41:192, 3300 
0:0:41:207, 3207 
0:0:41:223, 3066 
0:0:41:238, 2901 
0:0:41:254, 2744 
0:0:41:270, 2599 
0:0:41:286, 2427 
0:0:41:302, 2331 
0:0:41:317, 2187 
0:0:41:333, 2110 
0:0:41:349, 2014 
0:0:41:365, 1990 
0:0:41:380, 1950 
0:0:41:395, 1953 
0:0:41:410, 1974 
0:0:41:425, 2005 
0:0:41:440, 2038 
0:0:41:456, 2065 
0:0:41:472, 2079 
0:0:41:488, 2067 
0:0:41:504, 2037 
0:0:41:520, 1986 
0:0:41:535, 1936 
0:0:41:551, 1883 
0:0:41:567, 1810 
0:0:41:583, 1742 
0:0:41:599, 1697 
0:0:41:615, 1641 
0:0:41:631, 1608 
0:0:41:647, 1578 
0:0:41:662, 1549 
0:0:41:677, 1526 
0:0:41:693, 1507 
0:0:41:709, 1495 
0:0:41:725, 1488 
0:0:41:741, 1479 
0:0:41:756, 1472 
0:0:41:771, 1474 
0:0:41:787, 1475 
0:0:41:803, 1474 
0:0:41:818, 1483 
0:0:41:834, 1519 
0:0:41:850, 1661 
0:0:41:866, 1813 
0:0:41:882, 2157 
0:0:41:897, 2485 
0:0:41:912, 2798 
0:0:41:928, 3073 
0:0:41:944, 3247 
0:0:41:960, 3271 
0:0:41:976, 3186 
0:0:41:992, 3054 
0:0:42:8, 2852 
0:0:42:24, 2685 
0:0:42:40, 2495 
0:0:42:55, 2355 
0:0:42:70, 2260 
0:0:42:86, 2148 
0:0:42:102, 2055 
0:0:42:118, 1971 
0:0:42:133, 1938 
0:0:42:148, 1928 
0:0:42:164, 1937 
0:0:42:179, 1973 
0:0:42:195, 2018 
0:0:42:211, 2058 
0:0:42:227, 2078 
0:0:42:243, 2080 
0:0:42:259, 2057 
0:0:42:275, 2026 
0:0:42:291, 1979 
0:0:42:306, 1934 
0:0:42:321, 1858 
0:0:42:337, 1797 
0:0:42:353, 1747 
0:0:42:368, 1707 
0:0:42:383, 1665 
0:0:42:398, 1629 
0:0:42:413, 1601 
0:0:42:429, 1570 
0:0:42:444, 1545 
0:0:42:460, 1526 
0:0:42:475, 1514 
0:0:42:491, 1513 
0:0:42:508, 1507 
0:0:42:523, 1502 
0:0:42:539, 1500 
0:0:42:555, 1505 
0:0:42:571, 1546 
0:0:42:587, 1665 
0:0:42:602, 1942 
0:0:42:617, 2246 
0:0:42:633, 2582 
0:0:42:649, 2896 
0:0:42:665, 3212 
0:0:42:680, 3314 
0:0:42:695, 3325 
0:0:42:711, 3288 
0:0:42:727, 3148 
0:0:42:743, 2996 
0:0:42:758, 2841 
0:0:42:774, 2653 
0:0:42:790, 2527 
0:0:42:805, 2430 
0:0:42:821, 2289 
0:0:42:836, 2190 
0:0:42:851, 2105 
0:0:42:867, 2020 
0:0:42:882, 1976 
0:0:42:897, 1958 
0:0:42:912, 1963 
0:0:42:928, 1989 
0:0:42:943, 2011 
0:0:42:958, 2041 
0:0:42:973, 2055 
0:0:42:988, 2056 
0:0:43:4, 2032 
0:0:43:20, 1981 
0:0:43:36, 1937 
0:0:43:51, 1867 
0:0:43:66, 1804 
0:0:43:81, 1742 
0:0:43:97, 1666 
0:0:43:112, 1617 
0:0:43:128, 1592 
0:0:43:143, 1567 
0:0:43:159, 1553 
0:0:43:175, 1537 
0:0:43:191, 1520 
0:0:43:208, 1503 
0:0:43:224, 1492 
0:0:43:240, 1475 
0:0:43:256, 1464 
0:0:43:272, 1463 
0:0:43:288, 1469 
0:0:43:303, 1470 
0:0:43:318, 1470 
0:0:43:333, 1464 
0:0:43:349, 1465 
0:0:43:365, 1480 
0:0:43:381, 1536 
0:0:43:397, 1679 
0:0:43:412, 1917 
0:0:43:428, 2318 
0:0:43:445, 2668 
0:0:43:460, 2978 
0:0:43:476, 3278 
0:0:43:493, 3359 
0:0:43:508, 3326 
0:0:43:524, 3219 
0:0:43:539, 3107 
0:0:43:554, 2937 
0:0:43:569, 2726 
0:0:43:584, 2577 
0:0:43:600, 2407 
0:0:43:616, 2298 
0:0:43:632, 2197 
0:0:43:648, 2092 
0:0:43:663, 2036 
0:0:43:679, 1996 
0:0:43:695, 1992 
0:0:43:710, 2009 
0:0:43:726, 2034 
0:0:43:742, 2058 
0:0:43:758, 2070 
0:0:43:773, 2068 
0:0:43:788, 2050 
0:0:43:803, 2021 
0:0:43:819, 1976 
0:0:43:835, 1914 
0:0:43:851, 1861 
0:0:43:867, 1805 
0:0:43:882, 1743 
0:0:43:898, 1695 
0:0:43:913, 1648 
0:0:43:928, 1589 
0:0:43:943, 1558 
0:0:43:958, 1533 
0:0:43:974, 1514 
0:0:43:990, 1490 
0:0:44:5, 1472 
0:0:44:20, 1455 
0:0:44:36, 1438 
0:0:44:52, 1429 
0:0:44:68, 1422 
0:0:44:83, 1433 
0:0:44:98, 1441 
0:0:44:113, 1450 
0:0:44:129, 1456 
0:0:44:145, 1456 
0:0:44:161, 1453 
0:0:44:176, 1443 
0:0:44:191, 1434 
0:0:44:206, 1432 
0:0:44:222, 1451 
0:0:44:237, 1507 
0:0:44:252, 1696 
0:0:44:267, 1959 
0:0:44:283, 2387 
0:0:44:299, 2745 
0:0:44:315, 3057 
0:0:44:331, 3355 
0:0:44:347, 3426 
0:0:44:363, 3392 
0:0:44:379, 3242 
0:0:44:395, 3160 
0:0:44:410, 2986 
0:0:44:426, 2816 
0:0:44:442, 2613 
0:0:44:458, 2462 
0:0:44:473, 2326 
0:0:44:488, 2213 
0:0:44:504, 2099 
0:0:44:519, 2028 
0:0:44:535, 1980 
0:0:44:551, 1978 
0:0:44:566, 2007 
0:0:44:582, 2046 
0:0:44:598, 2074 
0:0:44:613, 2108 
0:0:44:629, 2140 
0:0:44:645, 2146 
0:0:44:661, 2130 
0:0:44:677, 2080 
0:0:44:693, 2020 
0:0:44:708, 1954 
0:0:44:723, 1883 
0:0:44:739, 1814 
0:0:44:755, 1747 
0:0:44:770, 1686 
0:0:44:786, 1653 
0:0:44:802, 1619 
0:0:44:817, 1579 
0:0:44:833, 1548 
0:0:44:849, 1516 
0:0:44:865, 1495 
0:0:44:881, 1485 
0:0:44:897, 1486 
0:0:44:913, 1482 
0:0:44:929, 1479 
0:0:44:944, 1479 
0:0:44:959, 1477 
0:0:44:974, 1475 
0:0:44:990, 1479 
0:0:45:6, 1483 
0:0:45:21, 1475 
0:0:45:36, 1466 
0:0:45:52, 1470 
0:0:45:68, 1510 
0:0:45:84, 1605 
0:0:45:100, 1778 
0:0:45:117, 2122 
0:0:45:133, 2463 
0:0:45:149, 2804 
0:0:45:165, 3103 
0:0:45:180, 3355 
0:0:45:194, 3433 
0:0:45:210, 3431 
0:0:45:226, 3344 
0:0:45:242, 3197 
0:0:45:258, 3016 
0:0:45:273, 2834 
0:0:45:290, 2623 
0:0:45:305, 2475 
0:0:45:321, 2338 
0:0:45:337, 2189 
0:0:45:353, 2092 
0:0:45:369, 2006 
0:0:45:385, 1968 
0:0:45:401, 1960 
0:0:45:416, 1966 
0:0:45:431, 1988 
0:0:45:447, 2031 
0:0:45:463, 2090 
0:0:45:479, 2110 
0:0:45:495, 2116 
0:0:45:511, 2097 
0:0:45:527, 2052 
0:0:45:543, 2008 
0:0:45:559, 1941 
0:0:45:575, 1858 
0:0:45:591, 1785 
0:0:45:607, 1708 
0:0:45:623, 1658 
0:0:45:638, 1609 
0:0:45:653, 1563 
0:0:45:668, 1525 
0:0:45:684, 1500 
0:0:45:700, 1482 
0:0:45:715, 1466 
0:0:45:731, 1455 
0:0:45:747, 1449 
0:0:45:763, 1442 
0:0:45:778, 1445 
0:0:45:794, 1445 
0:0:45:810, 1441 
0:0:45:826, 1441 
0:0:45:842, 1446 
0:0:45:858, 1444 
0:0:45:874, 1439 
0:0:45:889, 1434 
0:0:45:904, 1437 
0:0:45:919, 1489 
0:0:45:935, 1615 
0:0:45:950, 1848 
0:0:45:966, 2170 
0:0:45:982, 2635 
0:0:45:998, 3074 
0:0:46:14, 3374 
0:0:46:30, 3511 
0:0:46:46, 3542 
0:0:46:62, 3441 
0:0:46:78, 3289 
0:0:46:94, 3113 
0:0:46:110, 2894 
0:0:46:125, 2728 
0:0:46:140, 2575 
0:0:46:155, 2443 
0:0:46:171, 2302 
0:0:46:187, 2199 
0:0:46:203, 2122 
0:0:46:219, 2071 
0:0:46:235, 2039 
0:0:46:251, 2038 
0:0:46:266, 2058 
0:0:46:281, 2081 
0:0:46:297, 2117 
0:0:46:312, 2130 
0:0:46:328, 2123 
0:0:46:344, 2100 
0:0:46:359, 2061 
0:0:46:374, 2004 
0:0:46:389, 1944 
0:0:46:405, 1874 
0:0:46:421, 1807 
0:0:46:437, 1748 
0:0:46:453, 1686 
0:0:46:469, 1633 
0:0:46:485, 1588 
0:0:46:500, 1563 
0:0:46:515, 1539 
0:0:46:531, 1515 
0:0:46:547, 1494 
0:0:46:562, 1464 
0:0:46:578, 1454 
0:0:46:593, 1440 
0:0:46:608, 1430 
0:0:46:624, 1421 
0:0:46:639, 1413 
0:0:46:655, 1412 
0:0:46:671, 1423 
0:0:46:687, 1441 
0:0:46:703, 1444 
0:0:46:719, 1446 
0:0:46:734, 1449 
0:0:46:749, 1449 
0:0:46:765, 1468 
0:0:46:781, 1541 
0:0:46:797, 1703 
0:0:46:812, 2044 
0:0:46:827, 2399 
0:0:46:842, 2767 
0:0:46:858, 3090 
0:0:46:873, 3362 
0:0:46:889, 3479 
0:0:46:905, 3462 
0:0:46:921, 3361 
0:0:46:937, 3163 
0:0:46:953, 2978 
0:0:46:969, 2801 
0:0:46:985, 2605 
0:0:47:1, 2470 
0:0:47:16, 2316 
0:0:47:32, 2181 
0:0:47:48, 2113 
0:0:47:63, 2044 
0:0:47:78, 2007 
0:0:47:94, 2000 
0:0:47:110, 2016 
0:0:47:126, 2049 
0:0:47:142, 2086 
0:0:47:158, 2117 
0:0:47:173, 2123 
0:0:47:188, 2113 
0:0:47:204, 2084 
0:0:47:219, 2019 
0:0:47:235, 1963 
0:0:47:251, 1905 
0:0:47:267, 1839 
0:0:47:283, 1756 
0:0:47:298, 1715 
0:0:47:314, 1653 
0:0:47:330, 1606 
0:0:47:346, 1566 
0:0:47:362, 1529 
0:0:47:378, 1504 
0:0:47:394, 1485 
0:0:47:409, 1471 
0:0:47:424, 1455 
0:0:47:440, 1442 
0:0:47:456, 1439 
0:0:47:472, 1446 
0:0:47:488, 1449 
0:0:47:503, 1446 
0:0:47:518, 1445 
0:0:47:533, 1452 
0:0:47:548, 1453 
0:0:47:563, 1448 
0:0:47:578, 1448 
0:0:47:593, 1454 
0:0:47:609, 1480 
0:0:47:624, 1567 
0:0:47:639, 1748 
0:0:47:655, 2031 
0:0:47:670, 2381 
0:0:47:686, 2656 
0:0:47:702, 2656 
0:0:47:717, 2744 
0:0:47:732, 3065 
0:0:47:748, 3341 
0:0:47:763, 3451 
0:0:47:779, 3461 
0:0:47:795, 3394 
0:0:47:811, 3255 
0:0:47:826, 3072 
0:0:47:842, 2826 
0:0:47:858, 2645 
0:0:47:874, 2525 
0:0:47:890, 2383 
0:0:47:906, 2217 
0:0:47:921, 2097 
0:0:47:936, 2019 
0:0:47:951, 1946 
0:0:47:967, 1915 
0:0:47:983, 1927 
0:0:47:998, 1975 
0:0:48:14, 2035 
0:0:48:30, 2088 
0:0:48:46, 2136 
0:0:48:62, 2156 
0:0:48:78, 2151 
0:0:48:94, 2127 
0:0:48:110, 2076 
0:0:48:125, 2015 
0:0:48:141, 1933 
0:0:48:156, 1868 
0:0:48:172, 1808 
0:0:48:188, 1746 
0:0:48:203, 1676 
0:0:48:219, 1629 
0:0:48:234, 1587 
0:0:48:249, 1558 
0:0:48:265, 1534 
0:0:48:281, 1512 
0:0:48:297, 1503 
0:0:48:311, 1501 
0:0:48:327, 1492 
0:0:48:343, 1478 
0:0:48:359, 1475 
0:0:48:375, 1484 
0:0:48:391, 1491 
0:0:48:407, 1488 
0:0:48:422, 1483 
0:0:48:438, 1479 
0:0:48:454, 1499 
0:0:48:469, 1589 
0:0:48:484, 1721 
0:0:48:500, 2066 
0:0:48:515, 2420 
0:0:48:531, 2868 
0:0:48:547, 3168 
0:0:48:563, 3427 
0:0:48:579, 3475 
0:0:48:595, 3420 
0:0:48:611, 3248 
0:0:48:627, 3073 
0:0:48:643, 2891 
0:0:48:659, 2681 
0:0:48:675, 2541 
0:0:48:690, 2440 
0:0:48:705, 2311 
0:0:48:720, 2197 
0:0:48:736, 2083 
0:0:48:752, 2017 
0:0:48:768, 1981 
0:0:48:783, 1980 
0:0:48:799, 1995 
0:0:48:815, 2044 
0:0:48:830, 2082 
0:0:48:845, 2106 
0:0:48:861, 2119 
0:0:48:877, 2102 
0:0:48:892, 2063 
0:0:48:908, 2024 
0:0:48:924, 1956 
0:0:48:939, 1917 
0:0:48:954, 1847 
0:0:48:969, 1802 
0:0:48:985, 1743 
0:0:49:1, 1689 
0:0:49:17, 1626 
0:0:49:33, 1591 
0:0:49:49, 1550 
0:0:49:65, 1522 
0:0:49:81, 1499 
0:0:49:96, 1489 
0:0:49:111, 1477 
0:0:49:126, 1468 
0:0:49:142, 1461 
0:0:49:158, 1457 
0:0:49:173, 1455 
0:0:49:188, 1452 
0:0:49:204, 1454 
0:0:49:220, 1453 
0:0:49:235, 1452 
0:0:49:251, 1453 
0:0:49:267, 1456 
0:0:49:283, 1478 
0:0:49:299, 1515 
0:0:49:314, 1634 
0:0:49:330, 1863 
0:0:49:346, 2182 
0:0:49:362, 2645 
0:0:49:378, 2997 
0:0:49:393, 3300 
0:0:49:408, 3464 
0:0:49:424, 3492 
0:0:49:440, 3389 
0:0:49:455, 3242 
0:0:49:471, 3067 
0:0:49:487, 2848 
0:0:49:503, 2731 
0:0:49:518, 2590 
0:0:49:533, 2465 
0:0:49:549, 2353 
0:0:49:564, 2273 
0:0:49:580, 2169 
0:0:49:595, 2094 
0:0:49:610, 2046 
0:0:49:626, 2033 
0:0:49:641, 2033 
0:0:49:656, 2059 
0:0:49:671, 2088 
0:0:49:687, 2107 
0:0:49:703, 2113 
0:0:49:718, 2103 
0:0:49:733, 2075 
0:0:49:749, 2034 
0:0:49:764, 1967 
0:0:49:779, 1918 
0:0:49:794, 1862 
0:0:49:810, 1816 
0:0:49:825, 1738 
0:0:49:841, 1684 
0:0:49:857, 1629 
0:0:49:872, 1600 
0:0:49:887, 1580 
0:0:49:902, 1557 
0:0:49:917, 1547 
0:0:49:933, 1532 
0:0:49:949, 1514 
0:0:49:964, 1504 
0:0:49:980, 1496 
0:0:49:996, 1496 
0:0:50:11, 1499 
0:0:50:27, 1498 
0:0:50:42, 1505 
0:0:50:58, 1512 
0:0:50:74, 1515 
0:0:50:89, 1520 
0:0:50:105, 1522 
0:0:50:120, 1519 
0:0:50:135, 1520 
0:0:50:151, 1543 
0:0:50:167, 1666 
0:0:50:182, 1877 
0:0:50:198, 2173 
0:0:50:213, 2508 
0:0:50:229, 2915 
0:0:50:244, 3198 
0:0:50:260, 3322 
0:0:50:276, 3345 
0:0:50:292, 3319 
0:0:50:308, 3220 
0:0:50:324, 3042 
0:0:50:340, 2917 
0:0:50:355, 2755 
0:0:50:370, 2608 
0:0:50:386, 2475 
0:0:50:401, 2354 
0:0:50:416, 2252 
0:0:50:431, 2164 
0:0:50:446, 2093 
0:0:50:462, 2041 
0:0:50:477, 2013 
0:0:50:493, 2014 
0:0:50:509, 2047 
0:0:50:524, 2081 
0:0:50:540, 2104 
0:0:50:556, 2115 
0:0:50:572, 2110 
0:0:50:587, 2099 
0:0:50:602, 2069 
0:0:50:618, 2017 
0:0:50:634, 1979 
0:0:50:650, 1918 
0:0:50:665, 1858 
0:0:50:680, 1799 
0:0:50:696, 1741 
0:0:50:711, 1690 
0:0:50:727, 1654 
0:0:50:743, 1644 
0:0:50:759, 1617 
0:0:50:774, 1598 
0:0:50:790, 1573 
0:0:50:806, 1562 
0:0:50:822, 1547 
0:0:50:837, 1530 
0:0:50:853, 1523 
0:0:50:869, 1524 
0:0:50:885, 1522 
0:0:50:901, 1522 
0:0:50:916, 1523 
0:0:50:932, 1522 
0:0:50:948, 1527 
0:0:50:963, 1525 
0:0:50:979, 1520 
0:0:50:994, 1519 
0:0:51:9, 1525 
0:0:51:25, 1593 
0:0:51:40, 1734 
0:0:51:55, 1961 
0:0:51:70, 2261 
0:0:51:86, 2667 
0:0:51:102, 2952 
0:0:51:118, 3215 
0:0:51:134, 3277 
0:0:51:149, 3246 
0:0:51:164, 3141 
0:0:51:179, 3035 
0:0:51:195, 2874 
0:0:51:211, 2674 
0:0:51:227, 2529 
0:0:51:243, 2401 
0:0:51:259, 2263 
0:0:51:275, 2162 
0:0:51:290, 2079 
0:0:51:305, 2023 
0:0:51:320, 1987 
0:0:51:336, 1989 
0:0:51:352, 2008 
0:0:51:368, 2046 
0:0:51:384, 2077 
0:0:51:400, 2113 
0:0:51:416, 2130 
0:0:51:432, 2127 
0:0:51:447, 2120 
0:0:51:463, 2086 
0:0:51:479, 2026 
0:0:51:495, 1965 
0:0:51:511, 1906 
0:0:51:526, 1854 
0:0:51:541, 1802 
0:0:51:556, 1753 
0:0:51:571, 1701 
0:0:51:587, 1673 
0:0:51:602, 1642 
0:0:51:618, 1617 
0:0:51:634, 1594 
0:0:51:649, 1575 
0:0:51:664, 1556 
0:0:51:679, 1541 
0:0:51:694, 1541 
0:0:51:710, 1542 
0:0:51:725, 1549 
0:0:51:741, 1559 
0:0:51:756, 1559 
0:0:51:771, 1549 
0:0:51:786, 1541 
0:0:51:802, 1536 
0:0:51:818, 1546 
0:0:51:834, 1609 
0:0:51:849, 1756 
0:0:51:864, 1997 
0:0:51:880, 2405 
0:0:51:896, 2743 
0:0:51:912, 2965 
0:0:51:927, 3167 
0:0:51:943, 3318 
0:0:51:958, 3311 
0:0:51:974, 3217 
0:0:51:989, 3080 
0:0:52:4, 2961 
0:0:52:20, 2796 
0:0:52:36, 2641 
0:0:52:51, 2475 
0:0:52:66, 2365 
0:0:52:81, 2265 
0:0:52:97, 2170 
0:0:52:113, 2125 
0:0:52:129, 2036 
0:0:52:144, 2003 
0:0:52:159, 1985 
0:0:52:175, 1990 
0:0:52:191, 2013 
0:0:52:206, 2042 
0:0:52:221, 2059 
0:0:52:236, 2084 
0:0:52:251, 2086 
0:0:52:267, 2062 
0:0:52:282, 2028 
0:0:52:298, 1976 
0:0:52:314, 1919 
0:0:52:330, 1863 
0:0:52:346, 1793 
0:0:52:362, 1740 
0:0:52:378, 1677 
0:0:52:394, 1649 
0:0:52:410, 1624 
0:0:52:425, 1600 
0:0:52:441, 1569 
0:0:52:456, 1550 
0:0:52:471, 1525 
0:0:52:486, 1516 
0:0:52:502, 1514 
0:0:52:518, 1512 
0:0:52:534, 1509 
0:0:52:550, 1512 
0:0:52:566, 1510 
0:0:52:581, 1510 
0:0:52:597, 1514 
0:0:52:613, 1514 
0:0:52:629, 1509 
0:0:52:645, 1511 
0:0:52:661, 1529 
0:0:52:677, 1584 
0:0:52:692, 1721 
0:0:52:707, 1955 
0:0:52:723, 2269 
0:0:52:738, 2619 
0:0:52:754, 3007 
0:0:52:770, 3259 
0:0:52:786, 3356 
0:0:52:802, 3333 
0:0:52:817, 3266 
0:0:52:833, 3165 
0:0:52:849, 3000 
0:0:52:865, 2873 
0:0:52:880, 2710 
0:0:52:895, 2567 
0:0:52:911, 2449 
0:0:52:926, 2344 
0:0:52:941, 2244 
0:0:52:956, 2154 
0:0:52:972, 2059 
0:0:52:988, 2000 
0:0:53:4, 1982 
0:0:53:20, 1980 
0:0:53:36, 1996 
0:0:53:51, 2022 
0:0:53:66, 2054 
0:0:53:81, 2078 
0:0:53:97, 2082 
0:0:53:114, 2054 
0:0:53:130, 2009 
0:0:53:146, 1948 
0:0:53:161, 1881 
0:0:53:176, 1818 
0:0:53:192, 1764 
0:0:53:208, 1726 
0:0:53:223, 1662 
0:0:53:239, 1630 
0:0:53:255, 1588 
0:0:53:271, 1549 
0:0:53:287, 1523 
0:0:53:303, 1500 
0:0:53:319, 1483 
0:0:53:335, 1477 
0:0:53:351, 1469 
0:0:53:367, 1467 
0:0:53:383, 1464 
0:0:53:398, 1466 
0:0:53:414, 1473 
0:0:53:430, 1478 
0:0:53:445, 1481 
0:0:53:460, 1486 
0:0:53:476, 1489 
0:0:53:492, 1487 
0:0:53:508, 1482 
0:0:53:523, 1477 
0:0:53:539, 1502 
0:0:53:554, 1593 
0:0:53:569, 1775 
0:0:53:585, 2048 
0:0:53:601, 2465 
0:0:53:616, 2787 
0:0:53:631, 3074 
0:0:53:646, 3233 
0:0:53:661, 3266 
0:0:53:676, 3252 
0:0:53:691, 3187 
0:0:53:707, 3056 
0:0:53:722, 2892 
0:0:53:737, 2723 
0:0:53:753, 2567 
0:0:53:768, 2432 
0:0:53:784, 2297 
0:0:53:799, 2222 
0:0:53:814, 2132 
0:0:53:830, 2051 
0:0:53:846, 1972 
0:0:53:861, 1946 
0:0:53:876, 1939 
0:0:53:891, 1942 
0:0:53:907, 1963 
0:0:53:923, 1999 
0:0:53:939, 2020 
0:0:53:954, 2020 
0:0:53:970, 2038 
0:0:53:986, 2061 
0:0:54:2, 2058 
0:0:54:18, 2031 
0:0:54:34, 1972 
0:0:54:49, 1915 
0:0:54:65, 1844 
0:0:54:81, 1814 
0:0:54:96, 1752 
0:0:54:111, 1696 
0:0:54:126, 1632 
0:0:54:141, 1600 
0:0:54:156, 1555 
0:0:54:171, 1523 
0:0:54:187, 1497 
0:0:54:203, 1480 
0:0:54:218, 1466 
0:0:54:229, 1461 
0:0:54:250, 1466 
0:0:54:266, 1468 
0:0:54:282, 1475 
0:0:54:298, 1485 
0:0:54:314, 1489 
0:0:54:329, 1496 
0:0:54:344, 1498 
0:0:54:360, 1495 
0:0:54:375, 1493 
0:0:54:391, 1495 
0:0:54:407, 1547 
0:0:54:423, 1666 
0:0:54:439, 1939 
0:0:54:455, 2233 
0:0:54:471, 2543 
0:0:54:487, 2816 
0:0:54:503, 3037 
0:0:54:518, 3119 
0:0:54:534, 3108 
0:0:54:550, 3017 
0:0:54:565, 2846 
0:0:54:580, 2729 
0:0:54:595, 2526 
0:0:54:611, 2392 
0:0:54:626, 2274 
0:0:54:642, 2166 
0:0:54:658, 2070 
0:0:54:674, 1986 
0:0:54:689, 1926 
0:0:54:705, 1896 
0:0:54:720, 1880 
0:0:54:736, 1895 
0:0:54:752, 1922 
0:0:54:767, 1953 
0:0:54:782, 1983 
0:0:54:797, 1996 
0:0:54:812, 1990 
0:0:54:828, 1960 
0:0:54:844, 1916 
0:0:54:859, 1847 
0:0:54:875, 1847 
0:0:54:891, 1802 
0:0:54:906, 1758 
0:0:54:921, 1691 
0:0:54:937, 1643 
0:0:54:953, 1596 
0:0:54:969, 1562 
0:0:54:985, 1530 
0:0:55:1, 1504 
0:0:55:17, 1474 
0:0:55:32, 1448 
0:0:55:47, 1435 
0:0:55:63, 1426 
0:0:55:79, 1420 
0:0:55:95, 1418 
0:0:55:111, 1412 
0:0:55:127, 1405 
0:0:55:143, 1405 
0:0:55:159, 1407 
0:0:55:175, 1413 
0:0:55:191, 1414 
0:0:55:206, 1407 
0:0:55:221, 1410 
0:0:55:237, 1450 
0:0:55:253, 1549 
0:0:55:268, 1737 
0:0:55:283, 1999 
0:0:55:298, 2291 
0:0:55:314, 2511 
0:0:55:329, 2765 
0:0:55:344, 2965 
0:0:55:359, 3028 
0:0:55:375, 3021 
0:0:55:390, 2945 
0:0:55:405, 2820 
0:0:55:421, 2687 
0:0:55:437, 2568 
0:0:55:453, 2462 
0:0:55:469, 2361 
0:0:55:485, 2271 
0:0:55:500, 2180 
0:0:55:515, 2080 
0:0:55:531, 2032 
0:0:55:547, 1965 
0:0:55:563, 1965 
0:0:55:579, 1936 
0:0:55:595, 1915 
0:0:55:611, 1919 
0:0:55:627, 1933 
0:0:55:643, 1946 
0:0:55:658, 1950 
0:0:55:674, 1940 
0:0:55:690, 1926 
0:0:55:706, 1898 
0:0:55:722, 1860 
0:0:55:737, 1827 
0:0:55:752, 1781 
0:0:55:768, 1735 
0:0:55:784, 1685 
0:0:55:800, 1642 
0:0:55:815, 1604 
0:0:55:831, 1562 
0:0:55:847, 1519 
0:0:55:863, 1490 
0:0:55:879, 1458 
0:0:55:895, 1438 
0:0:55:911, 1417 
0:0:55:927, 1409 
0:0:55:941, 1405 
0:0:55:956, 1402 
0:0:55:971, 1398 
0:0:55:986, 1398 
0:0:56:2, 1398 
0:0:56:18, 1402 
0:0:56:34, 1405 
0:0:56:50, 1401 
0:0:56:66, 1397 
0:0:56:82, 1393 
0:0:56:98, 1390 
0:0:56:113, 1411 
0:0:56:129, 1488 
0:0:56:145, 1597 
0:0:56:161, 1816 
0:0:56:177, 2083 
0:0:56:193, 2371 
0:0:56:208, 2628 
0:0:56:223, 2849 
0:0:56:239, 2968 
0:0:56:255, 2974 
0:0:56:271, 2903 
0:0:56:287, 2768 
0:0:56:303, 2704 
0:0:56:319, 2545 
0:0:56:335, 2458 
0:0:56:351, 2375 
0:0:56:367, 2300 
0:0:56:382, 2212 
0:0:56:398, 2134 
0:0:56:414, 2049 
0:0:56:430, 1991 
0:0:56:445, 1955 
0:0:56:460, 1923 
0:0:56:476, 1908 
0:0:56:492, 1913 
0:0:56:508, 1922 
0:0:56:523, 1939 
0:0:56:539, 1959 
0:0:56:555, 1953 
0:0:56:570, 1933 
0:0:56:586, 1904 
0:0:56:602, 1855 
0:0:56:618, 1807 
0:0:56:634, 1756 
0:0:56:650, 1746 
0:0:56:666, 1705 
0:0:56:681, 1664 
0:0:56:696, 1629 
0:0:56:711, 1605 
0:0:56:726, 1573 
0:0:56:743, 1543 
0:0:56:758, 1515 
0:0:56:774, 1489 
0:0:56:790, 1472 
0:0:56:806, 1464 
0:0:56:822, 1451 
0:0:56:838, 1434 
0:0:56:854, 1422 
0:0:56:870, 1417 
0:0:56:886, 1425 
0:0:56:902, 1431 
0:0:56:917, 1443 
0:0:56:932, 1447 
0:0:56:948, 1436 
0:0:56:964, 1423 
0:0:56:980, 1401 
0:0:56:996, 1381 
0:0:57:11, 1368 
0:0:57:27, 1381 
0:0:57:43, 1484 
0:0:57:59, 1653 
0:0:57:75, 1964 
0:0:57:91, 2254 
0:0:57:107, 2532 
0:0:57:122, 2786 
0:0:57:138, 2933 
0:0:57:153, 2986 
0:0:57:169, 2974 
0:0:57:184, 2901 
0:0:57:200, 2787 
0:0:57:216, 2687 
0:0:57:232, 2524 
0:0:57:247, 2406 
0:0:57:262, 2274 
0:0:57:278, 2181 
0:0:57:294, 2116 
0:0:57:309, 2039 
0:0:57:324, 1981 
0:0:57:340, 1934 
0:0:57:357, 1921 
0:0:57:373, 1926 
0:0:57:388, 1947 
0:0:57:403, 1976 
0:0:57:419, 2001 
0:0:57:435, 2016 
0:0:57:451, 2022 
0:0:57:467, 2007 
0:0:57:483, 1964 
0:0:57:499, 1923 
0:0:57:515, 1871 
0:0:57:531, 1804 
0:0:57:547, 1751 
0:0:57:563, 1694 
0:0:57:578, 1685 
0:0:57:593, 1647 
0:0:57:608, 1613 
0:0:57:624, 1577 
0:0:57:639, 1559 
0:0:57:655, 1544 
0:0:57:671, 1529 
0:0:57:687, 1515 
0:0:57:703, 1499 
0:0:57:718, 1487 
0:0:57:733, 1482 
0:0:57:748, 1482 
0:0:57:763, 1477 
0:0:57:779, 1472 
0:0:57:795, 1470 
0:0:57:811, 1467 
0:0:57:827, 1461 
0:0:57:843, 1457 
0:0:57:859, 1462 
0:0:57:874, 1462 
0:0:57:890, 1464 
0:0:57:906, 1492 
0:0:57:921, 1545 
0:0:57:937, 1643 
0:0:57:953, 1785 
0:0:57:969, 2037 
0:0:57:984, 2342 
0:0:58:0, 2641 
0:0:58:16, 2892 
0:0:58:32, 3094 
0:0:58:48, 3168 
0:0:58:64, 3136 
0:0:58:80, 3008 
0:0:58:95, 2875 
0:0:58:110, 2701 
0:0:58:125, 2569 
0:0:58:141, 2450 
0:0:58:157, 2319 
0:0:58:173, 2227 
0:0:58:189, 2131 
0:0:58:205, 2083 
0:0:58:221, 2027 
0:0:58:237, 2001 
0:0:58:253, 1992 
0:0:58:269, 2005 
0:0:58:285, 2030 
0:0:58:301, 2046 
0:0:58:317, 2050 
0:0:58:332, 2039 
0:0:58:347, 2023 
0:0:58:362, 1987 
0:0:58:378, 1941 
0:0:58:394, 1904 
0:0:58:408, 1864 
0:0:58:424, 1828 
0:0:58:440, 1786 
0:0:58:455, 1741 
0:0:58:471, 1687 
0:0:58:486, 1652 
0:0:58:502, 1616 
0:0:58:517, 1586 
0:0:58:533, 1561 
0:0:58:549, 1543 
0:0:58:564, 1523 
0:0:58:579, 1499 
0:0:58:594, 1481 
0:0:58:610, 1471 
0:0:58:626, 1462 
0:0:58:642, 1455 
0:0:58:657, 1455 
0:0:58:672, 1453 
0:0:58:688, 1452 
0:0:58:704, 1453 
0:0:58:719, 1457 
0:0:58:735, 1464 
0:0:58:751, 1462 
0:0:58:767, 1456 
0:0:58:783, 1451 
0:0:58:798, 1453 
0:0:58:813, 1501 
0:0:58:830, 1583 
0:0:58:846, 1762 
0:0:58:862, 2023 
0:0:58:878, 2340 
0:0:58:893, 2583 
0:0:58:908, 2809 
0:0:58:924, 3080 
0:0:58:939, 3235 
0:0:58:954, 3277 
0:0:58:969, 3230 
0:0:58:985, 3089 
0:0:59:0, 2942 
0:0:59:16, 2785 
0:0:59:31, 2643 
0:0:59:46, 2514 
0:0:59:62, 2394 
0:0:59:78, 2262 
0:0:59:94, 2168 
0:0:59:110, 2091 
0:0:59:126, 2020 
0:0:59:142, 1992 
0:0:59:158, 1993 
0:0:59:174, 2008 
0:0:59:190, 2026 
0:0:59:205, 2053 
0:0:59:220, 2072 
0:0:59:236, 2083 
0:0:59:252, 2080 
0:0:59:267, 2060 
0:0:59:282, 2028 
0:0:59:298, 1981 
0:0:59:314, 1927 
0:0:59:329, 1862 
0:0:59:346, 1808 
0:0:59:362, 1758 
0:0:59:378, 1715 
0:0:59:394, 1673 
0:0:59:410, 1622 
0:0:59:425, 1583 
0:0:59:441, 1560 
0:0:59:457, 1536 
0:0:59:473, 1516 
0:0:59:489, 1500 
0:0:59:504, 1490 
0:0:59:519, 1475 
0:0:59:535, 1455 
0:0:59:550, 1447 
0:0:59:565, 1436 
0:0:59:580, 1428 
0:0:59:596, 1425 
0:0:59:612, 1423 
0:0:59:628, 1421 
0:0:59:644, 1420 
0:0:59:659, 1421 
0:0:59:674, 1421 
0:0:59:690, 1423 
0:0:59:705, 1429 
0:0:59:720, 1452 
0:0:59:735, 1528 
0:0:59:750, 1686 
0:0:59:765, 1932 
0:0:59:780, 2162 
0:0:59:796, 2489 
0:0:59:812, 2793 
0:0:59:828, 3130 
0:0:59:844, 3257 
0:0:59:859, 3282 
0:0:59:874, 3263 
0:0:59:889, 3178 
0:0:59:905, 3045 
0:0:59:920, 2888 
0:0:59:936, 2695 
0:0:59:952, 2551 
0:0:59:967, 2413 
0:0:59:982, 2285 
0:0:59:998, 2147 
0:1:0:13, 2076 
0:1:0:29, 1995 
0:1:0:45, 1959 
0:1:0:60, 1948 
0:1:0:76, 1953 
0:1:0:92, 1984 
0:1:0:107, 2016 
0:1:0:123, 2053 
0:1:0:139, 2077 
0:1:0:155, 2081 
0:1:0:170, 2072 
0:1:0:186, 2059 
0:1:0:201, 2022 
0:1:0:216, 1971 
0:1:0:232, 1897 
0:1:0:247, 1839 
0:1:0:263, 1811 
0:1:0:279, 1743 
0:1:0:295, 1701 
0:1:0:311, 1667 
0:1:0:327, 1635 
0:1:0:343, 1610 
0:1:0:359, 1588 
0:1:0:375, 1567 
0:1:0:391, 1543 
0:1:0:406, 1525 
0:1:0:421, 1509 
0:1:0:436, 1496 
0:1:0:451, 1485 
0:1:0:467, 1477 
0:1:0:482, 1469 
0:1:0:497, 1475 
0:1:0:513, 1484 
0:1:0:529, 1489 
0:1:0:544, 1498 
0:1:0:561, 1506 
0:1:0:577, 1509 
0:1:0:593, 1536 
0:1:0:609, 1646 
0:1:0:624, 1772 
0:1:0:640, 1944 
0:1:0:656, 2324 
0:1:0:671, 2576 
0:1:0:686, 2888 
0:1:0:702, 3167 
0:1:0:717, 3329 
0:1:0:732, 3383 
0:1:0:748, 3348 
0:1:0:764, 3237 
0:1:0:779, 3048 
0:1:0:794, 2881 
0:1:0:810, 2718 
0:1:0:826, 2570 
0:1:0:842, 2428 
0:1:0:858, 2271 
0:1:0:873, 2187 
0:1:0:889, 2114 
0:1:0:904, 2037 
0:1:0:920, 1989 
0:1:0:936, 1964 
0:1:0:952, 1966 
0:1:0:968, 1988 
0:1:0:983, 2030 
0:1:0:999, 2058 
0:1:1:15, 2091 
0:1:1:31, 2104 
0:1:1:47, 2096 
0:1:1:62, 2071 
0:1:1:78, 2071 
0:1:1:93, 2052 
0:1:1:109, 2006 
0:1:1:125, 1952 
0:1:1:140, 1895 
0:1:1:155, 1838 
0:1:1:170, 1783 
0:1:1:185, 1734 
0:1:1:200, 1687 
0:1:1:215, 1639 
0:1:1:230, 1603 
0:1:1:246, 1580 
0:1:1:262, 1551 
0:1:1:278, 1535 
0:1:1:294, 1523 
0:1:1:309, 1506 
0:1:1:325, 1492 
0:1:1:340, 1477 
0:1:1:355, 1463 
0:1:1:370, 1456 
0:1:1:385, 1458 
0:1:1:400, 1462 
0:1:1:415, 1475 
0:1:1:431, 1487 
0:1:1:447, 1490 
0:1:1:463, 1488 
0:1:1:479, 1488 
0:1:1:495, 1501 
0:1:1:511, 1563 
0:1:1:527, 1659 
0:1:1:542, 1864 
0:1:1:558, 2238 
0:1:1:574, 2581 
0:1:1:590, 2981 
0:1:1:606, 3272 
0:1:1:621, 3440 
0:1:1:636, 3453 
0:1:1:652, 3384 
0:1:1:668, 3223 
0:1:1:684, 3062 
0:1:1:700, 2892 
0:1:1:716, 2773 
0:1:1:732, 2589 
0:1:1:748, 2493 
0:1:1:764, 2345 
0:1:1:780, 2237 
0:1:1:795, 2155 
0:1:1:811, 2110 
0:1:1:826, 2078 
0:1:1:842, 2060 
0:1:1:857, 2067 
0:1:1:872, 2093 
0:1:1:888, 2122 
0:1:1:904, 2148 
0:1:1:920, 2163 
0:1:1:936, 2172 
0:1:1:952, 2161 
0:1:1:968, 2122 
0:1:1:984, 2079 
0:1:2:0, 2019 
0:1:2:15, 1960 
0:1:2:31, 1881 
0:1:2:47, 1820 
0:1:2:63, 1750 
0:1:2:78, 1700 
0:1:2:93, 1652 
0:1:2:108, 1604 
0:1:2:124, 1578 
0:1:2:140, 1547 
0:1:2:156, 1531 
0:1:2:172, 1517 
0:1:2:188, 1506 
0:1:2:203, 1492 
0:1:2:219, 1475 
0:1:2:235, 1462 
0:1:2:251, 1452 
0:1:2:267, 1451 
0:1:2:283, 1457 
0:1:2:299, 1468 
0:1:2:315, 1476 
0:1:2:330, 1482 
0:1:2:345, 1484 
0:1:2:361, 1490 
0:1:2:377, 1521 
0:1:2:392, 1537 
0:1:2:408, 1646 
0:1:2:424, 1843 
0:1:2:440, 2126 
0:1:2:456, 2461 
0:1:2:472, 2806 
0:1:2:488, 3203 
0:1:2:503, 3379 
0:1:2:518, 3434 
0:1:2:534, 3413 
0:1:2:550, 3315 
0:1:2:565, 3131 
0:1:2:580, 2958 
0:1:2:596, 2790 
0:1:2:612, 2588 
0:1:2:628, 2454 
0:1:2:644, 2336 
0:1:2:660, 2251 
0:1:2:676, 2153 
0:1:2:692, 2084 
0:1:2:708, 2034 
0:1:2:723, 2027 
0:1:2:739, 2038 
0:1:2:754, 2056 
0:1:2:770, 2089 
0:1:2:786, 2123 
0:1:2:801, 2147 
0:1:2:816, 2161 
0:1:2:832, 2166 
0:1:2:848, 2136 
0:1:2:864, 2089 
0:1:2:880, 2031 
0:1:2:896, 1983 
0:1:2:912, 1908 
0:1:2:929, 1855 
0:1:2:944, 1815 
0:1:2:960, 1766 
0:1:2:976, 1715 
0:1:2:992, 1672 
0:1:3:8, 1626 
0:1:3:23, 1600 
0:1:3:38, 1577 
0:1:3:53, 1558 
0:1:3:69, 1541 
0:1:3:85, 1528 
0:1:3:101, 1524 
0:1:3:117, 1520 
0:1:3:133, 1519 
0:1:3:148, 1523 
0:1:3:164, 1532 
0:1:3:179, 1536 
0:1:3:194, 1534 
0:1:3:210, 1532 
0:1:3:225, 1529 
0:1:3:241, 1509 
0:1:3:257, 1500 
0:1:3:272, 1535 
0:1:3:287, 1642 
0:1:3:303, 1837 
0:1:3:319, 2166 
0:1:3:335, 2447 
0:1:3:350, 2704 
0:1:3:365, 2838 
0:1:3:380, 2992 
0:1:3:396, 3042 
0:1:3:412, 3034 
0:1:3:428, 2928 
0:1:3:444, 2791 
0:1:3:460, 2640 
0:1:3:475, 2483 
0:1:3:490, 2367 
0:1:3:505, 2225 
0:1:3:520, 2098 
0:1:3:536, 1987 
0:1:3:551, 1891 
0:1:3:566, 1824 
0:1:3:582, 1796 
0:1:3:598, 1791 
0:1:3:614, 1832 
0:1:3:630, 1899 
0:1:3:645, 1947 
0:1:3:660, 2007 
0:1:3:675, 2053 
0:1:3:691, 2075 
0:1:3:706, 2076 
0:1:3:721, 2059 
0:1:3:736, 2012 
0:1:3:751, 1957 
0:1:3:767, 1901 
0:1:3:783, 1847 
0:1:3:799, 1808 
0:1:3:815, 1754 
0:1:3:830, 1706 
0:1:3:846, 1664 
0:1:3:862, 1625 
0:1:3:878, 1597 
0:1:3:894, 1570 
0:1:3:910, 1554 
0:1:3:926, 1538 
0:1:3:942, 1530 
0:1:3:958, 1529 
0:1:3:973, 1528 
0:1:3:988, 1532 
0:1:4:3, 1534 
0:1:4:19, 1531 
0:1:4:34, 1528 
0:1:4:50, 1524 
0:1:4:66, 1513 
0:1:4:82, 1507 
0:1:4:98, 1518 
0:1:4:113, 1564 
0:1:4:129, 1682 
0:1:4:145, 1826 
0:1:4:161, 2171 
0:1:4:177, 2507 
0:1:4:192, 2839 
0:1:4:207, 3058 
0:1:4:223, 3351 
0:1:4:239, 3435 
0:1:4:255, 3432 
0:1:4:271, 3322 
0:1:4:287, 3189 
0:1:4:303, 3037 
0:1:4:318, 2883 
0:1:4:334, 2708 
0:1:4:350, 2613 
0:1:4:366, 2467 
0:1:4:381, 2359 
0:1:4:396, 2283 
0:1:4:412, 2218 
0:1:4:427, 2148 
0:1:4:443, 2119 
0:1:4:458, 2106 
0:1:4:474, 2112 
0:1:4:490, 2129 
0:1:4:506, 2152 
0:1:4:522, 2175 
0:1:4:538, 2174 
0:1:4:554, 2156 
0:1:4:570, 2104 
0:1:4:586, 2050 
0:1:4:602, 1978 
0:1:4:618, 1948 
0:1:4:634, 1895 
0:1:4:650, 1853 
0:1:4:666, 1796 
0:1:4:681, 1750 
0:1:4:696, 1728 
0:1:4:711, 1684 
0:1:4:726, 1645 
0:1:4:742, 1613 
0:1:4:758, 1584 
0:1:4:774, 1566 
0:1:4:790, 1548 
0:1:4:806, 1539 
0:1:4:821, 1537 
0:1:4:837, 1541 
0:1:4:853, 1538 
0:1:4:869, 1531 
0:1:4:885, 1530 
0:1:4:901, 1527 
0:1:4:916, 1524 
0:1:4:931, 1525 
0:1:4:946, 1527 
0:1:4:962, 1531 
0:1:4:978, 1545 
0:1:4:994, 1607 
0:1:5:10, 1748 
0:1:5:26, 1913 
0:1:5:42, 2122 
0:1:5:58, 2527 
0:1:5:74, 2841 
0:1:5:90, 3191 
0:1:5:106, 3323 
0:1:5:122, 3356 
0:1:5:138, 3286 
0:1:5:153, 3203 
0:1:5:168, 3064 
0:1:5:183, 2917 
0:1:5:198, 2811 
0:1:5:214, 2680 
0:1:5:230, 2563 
0:1:5:246, 2452 
0:1:5:262, 2318 
0:1:5:278, 2231 
0:1:5:293, 2164 
0:1:5:308, 2125 
0:1:5:323, 2115 
0:1:5:339, 2116 
0:1:5:355, 2128 
0:1:5:371, 2147 
0:1:5:386, 2162 
0:1:5:401, 2168 
0:1:5:417, 2162 
0:1:5:433, 2144 
0:1:5:449, 2116 
0:1:5:464, 2073 
0:1:5:480, 2024 
0:1:5:496, 1965 
0:1:5:511, 1908 
0:1:5:527, 1870 
0:1:5:542, 1819 
0:1:5:557, 1781 
0:1:5:572, 1742 
0:1:5:587, 1712 
0:1:5:603, 1680 
0:1:5:619, 1648 
0:1:5:634, 1639 
0:1:5:650, 1624 
0:1:5:666, 1612 
0:1:5:682, 1596 
0:1:5:697, 1583 
0:1:5:713, 1567 
0:1:5:728, 1565 
0:1:5:743, 1561 
0:1:5:759, 1551 
0:1:5:775, 1546 
0:1:5:791, 1538 
0:1:5:807, 1527 
0:1:5:823, 1534 
0:1:5:839, 1564 
0:1:5:854, 1667 
0:1:5:869, 1852 
0:1:5:884, 2097 
0:1:5:899, 2293 
0:1:5:915, 2601 
0:1:5:930, 2829 
0:1:5:946, 2949 
0:1:5:962, 3000 
0:1:5:977, 3001 
0:1:5:993, 2939 
0:1:6:9, 2849 
0:1:6:26, 2716 
0:1:6:42, 2611 
0:1:6:58, 2515 
0:1:6:73, 2422 
0:1:6:88, 2332 
0:1:6:103, 2253 
0:1:6:118, 2161 
0:1:6:134, 2102 
0:1:6:150, 2068 
0:1:6:166, 2055 
0:1:6:182, 2069 
0:1:6:198, 2084 
0:1:6:213, 2094 
0:1:6:229, 2098 
0:1:6:245, 2088 
0:1:6:261, 2049 
0:1:6:277, 2012 
0:1:6:293, 1959 
0:1:6:308, 1930 
0:1:6:323, 1884 
0:1:6:338, 1844 
0:1:6:354, 1803 
0:1:6:370, 1765 
0:1:6:386, 1725 
0:1:6:402, 1690 
0:1:6:418, 1662 
0:1:6:434, 1635 
0:1:6:450, 1617 
0:1:6:461, 1617 
0:1:6:482, 1596 
0:1:6:495, 1577 
0:1:6:506, 1565 
0:1:6:530, 1542 
0:1:6:542, 1539 
0:1:6:560, 1533 
0:1:6:576, 1531 
0:1:6:588, 1529 
0:1:6:600, 1528 
0:1:6:623, 1526 
0:1:6:639, 1521 
0:1:6:655, 1515 
0:1:6:671, 1516 
0:1:6:686, 1519 
0:1:6:701, 1521 
0:1:6:717, 1533 
0:1:6:732, 1581 
0:1:6:748, 1689 
0:1:6:764, 1868 
0:1:6:780, 2151 
0:1:6:795, 2327 
0:1:6:810, 2540 
0:1:6:826, 2759 
0:1:6:841, 2837 
0:1:6:857, 2855 
0:1:6:873, 2823 
0:1:6:889, 2763 
0:1:6:904, 2683 
0:1:6:920, 2600 
0:1:6:936, 2512 
0:1:6:952, 2443 
0:1:6:968, 2379 
0:1:6:984, 2291 
0:1:7:0, 2215 
0:1:7:16, 2137 
0:1:7:31, 2090 
0:1:7:46, 2055 
0:1:7:61, 2037 
0:1:7:76, 2029 
0:1:7:92, 2023 
0:1:7:108, 2022 
0:1:7:123, 2019 
0:1:7:139, 2017 
0:1:7:154, 2012 
0:1:7:170, 2011 
0:1:7:185, 2003 
0:1:7:200, 1991 
0:1:7:216, 1972 
0:1:7:231, 1951 
0:1:7:246, 1918 
0:1:7:261, 1874 
0:1:7:276, 1838 
0:1:7:292, 1806 
0:1:7:308, 1768 
0:1:7:324, 1736 
0:1:7:339, 1713 
0:1:7:354, 1689 
0:1:7:370, 1664 
0:1:7:386, 1638 
0:1:7:402, 1618 
0:1:7:418, 1606 
0:1:7:434, 1595 
0:1:7:450, 1586 
0:1:7:466, 1584 
0:1:7:482, 1578 
0:1:7:497, 1568 
0:1:7:512, 1559 
0:1:7:528, 1561 
0:1:7:543, 1570 
0:1:7:559, 1573 
0:1:7:575, 1567 
0:1:7:591, 1563 
0:1:7:607, 1555 
0:1:7:623, 1561 
0:1:7:639, 1614 
0:1:7:655, 1764 
0:1:7:671, 1948 
0:1:7:687, 2217 
0:1:7:703, 2367 
0:1:7:719, 2564 
0:1:7:734, 2670 
0:1:7:749, 2711 
0:1:7:764, 2699 
0:1:7:779, 2657 
0:1:7:794, 2571 
0:1:7:810, 2503 
0:1:7:825, 2441 
0:1:7:841, 2373 
0:1:7:856, 2322 
0:1:7:872, 2263 
0:1:7:888, 2193 
0:1:7:903, 2155 
0:1:7:919, 2118 
0:1:7:934, 2091 
0:1:7:950, 2066 
0:1:7:965, 2049 
0:1:7:980, 2042 
0:1:7:996, 2039 
0:1:8:12, 2032 
0:1:8:27, 2025 
0:1:8:43, 2010 
0:1:8:59, 1983 
0:1:8:75, 1953 
0:1:8:91, 1907 
0:1:8:107, 1873 
0:1:8:123, 1836 
0:1:8:139, 1801 
0:1:8:155, 1779 
0:1:8:171, 1741 
0:1:8:187, 1715 
0:1:8:202, 1695 
0:1:8:217, 1675 
0:1:8:233, 1661 
0:1:8:249, 1646 
0:1:8:265, 1629 
0:1:8:280, 1621 
0:1:8:295, 1611 
0:1:8:311, 1608 
0:1:8:327, 1604 
0:1:8:343, 1594 
0:1:8:359, 1592 
0:1:8:375, 1589 
0:1:8:391, 1587 
0:1:8:407, 1588 
0:1:8:422, 1585 
0:1:8:437, 1581 
0:1:8:452, 1564 
0:1:8:468, 1558 
0:1:8:484, 1558 
0:1:8:500, 1618 
0:1:8:515, 1738 
0:1:8:531, 1863 
0:1:8:547, 2062 
0:1:8:563, 2276 
0:1:8:579, 2459 
0:1:8:595, 2633 
0:1:8:611, 2696 
0:1:8:627, 2689 
0:1:8:643, 2645 
0:1:8:659, 2563 
0:1:8:674, 2486 
0:1:8:689, 2408 
0:1:8:704, 2342 
0:1:8:720, 2276 
0:1:8:735, 2228 
0:1:8:751, 2157 
0:1:8:767, 2100 
0:1:8:783, 2054 
0:1:8:799, 2023 
0:1:8:814, 1997 
0:1:8:830, 1985 
0:1:8:846, 1977 
0:1:8:862, 1975 
0:1:8:877, 1972 
0:1:8:893, 1959 
0:1:8:908, 1938 
0:1:8:923, 1914 
0:1:8:939, 1879 
0:1:8:955, 1844 
0:1:8:971, 1809 
0:1:8:987, 1773 
0:1:9:3, 1741 
0:1:9:19, 1715 
0:1:9:34, 1692 
0:1:9:50, 1666 
0:1:9:66, 1648 
0:1:9:82, 1634 
0:1:9:98, 1624 
0:1:9:114, 1611 
0:1:9:129, 1604 
0:1:9:144, 1598 
0:1:9:159, 1592 
0:1:9:174, 1592 
0:1:9:190, 1589 
0:1:9:206, 1578 
0:1:9:221, 1569 
0:1:9:237, 1558 
0:1:9:253, 1557 
0:1:9:269, 1557 
0:1:9:285, 1554 
0:1:9:301, 1551 
0:1:9:317, 1542 
0:1:9:333, 1536 
0:1:9:348, 1533 
0:1:9:364, 1540 
0:1:9:379, 1582 
0:1:9:394, 1670 
0:1:9:410, 1817 
0:1:9:426, 2019 
0:1:9:442, 2237 
0:1:9:458, 2488 
0:1:9:474, 2673 
0:1:9:490, 2777 
0:1:9:506, 2791 
0:1:9:521, 2755 
0:1:9:537, 2706 
0:1:9:553, 2650 
0:1:9:569, 2588 
0:1:9:584, 2526 
0:1:9:599, 2467 
0:1:9:614, 2408 
0:1:9:630, 2336 
0:1:9:646, 2288 
0:1:9:661, 2244 
0:1:9:677, 2223 
0:1:9:692, 2222 
0:1:9:708, 2222 
0:1:9:724, 2227 
0:1:9:740, 2229 
0:1:9:756, 2221 
0:1:9:772, 2207 
0:1:9:788, 2183 
0:1:9:804, 2147 
0:1:9:820, 2114 
0:1:9:835, 2062 
0:1:9:850, 2016 
0:1:9:865, 1972 
0:1:9:881, 1935 
0:1:9:897, 1899 
0:1:9:913, 1860 
0:1:9:929, 1834 
0:1:9:945, 1810 
0:1:9:961, 1782 
0:1:9:977, 1758 
0:1:9:993, 1729 
0:1:10:8, 1703 
0:1:10:23, 1675 
0:1:10:39, 1647 
0:1:10:55, 1631 
0:1:10:71, 1616 
0:1:10:86, 1611 
0:1:10:101, 1606 
0:1:10:117, 1594 
0:1:10:133, 1586 
0:1:10:149, 1576 
0:1:10:165, 1573 
0:1:10:181, 1564 
0:1:10:197, 1545 
0:1:10:213, 1517 
0:1:10:228, 1494 
0:1:10:244, 1477 
0:1:10:260, 1486 
0:1:10:276, 1541 
0:1:10:292, 1667 
0:1:10:308, 1862 
0:1:10:323, 2092 
0:1:10:338, 2323 
0:1:10:354, 2517 
0:1:10:370, 2646 
0:1:10:386, 2709 
0:1:10:402, 2747 
0:1:10:418, 2730 
0:1:10:433, 2676 
0:1:10:449, 2603 
0:1:10:465, 2489 
0:1:10:481, 2392 
0:1:10:497, 2304 
0:1:10:513, 2197 
0:1:10:528, 2118 
0:1:10:544, 2044 
0:1:10:559, 1976 
0:1:10:574, 1952 
0:1:10:589, 1939 
0:1:10:605, 1941 
0:1:10:621, 1963 
0:1:10:637, 1980 
0:1:10:653, 1997 
0:1:10:669, 2004 
0:1:10:684, 2003 
0:1:10:700, 1999 
0:1:10:716, 1987 
0:1:10:732, 1957 
0:1:10:747, 1918 
0:1:10:762, 1876 
0:1:10:777, 1832 
0:1:10:792, 1800 
0:1:10:807, 1768 
0:1:10:822, 1726 
0:1:10:838, 1684 
0:1:10:854, 1642 
0:1:10:869, 1594 
0:1:10:884, 1572 
0:1:10:900, 1558 
0:1:10:916, 1536 
0:1:10:931, 1521 
0:1:10:947, 1509 
0:1:10:963, 1502 
0:1:10:979, 1497 
0:1:10:994, 1489 
0:1:11:10, 1478 
0:1:11:25, 1468 
0:1:11:40, 1451 
0:1:11:55, 1436 
0:1:11:70, 1427 
0:1:11:85, 1420 
0:1:11:101, 1415 
0:1:11:117, 1406 
0:1:11:133, 1401 
0:1:11:148, 1393 
0:1:11:163, 1394 
0:1:11:179, 1453 
0:1:11:195, 1584 
0:1:11:211, 1736 
0:1:11:227, 2072 
0:1:11:243, 2364 
0:1:11:258, 2633 
0:1:11:273, 2878 
0:1:11:288, 3011 
0:1:11:304, 3080 
0:1:11:319, 3067 
0:1:11:334, 3016 
0:1:11:350, 2937 
0:1:11:366, 2864 
0:1:11:381, 2761 
0:1:11:396, 2681 
0:1:11:412, 2575 
0:1:11:429, 2500 
0:1:11:445, 2403 
0:1:11:461, 2295 
0:1:11:476, 2231 
0:1:11:491, 2197 
0:1:11:506, 2186 
0:1:11:522, 2198 
0:1:11:538, 2226 
0:1:11:553, 2236 
0:1:11:568, 2236 
0:1:11:584, 2236 
0:1:11:600, 2227 
0:1:11:616, 2189 
0:1:11:631, 2166 
0:1:11:647, 2166 
0:1:11:663, 2110 
0:1:11:679, 2050 
0:1:11:695, 1992 
0:1:11:710, 1938 
0:1:11:726, 1887 
0:1:11:741, 1839 
0:1:11:756, 1797 
0:1:11:771, 1751 
0:1:11:786, 1707 
0:1:11:801, 1666 
0:1:11:817, 1626 
0:1:11:832, 1585 
0:1:11:848, 1548 
0:1:11:864, 1523 
0:1:11:879, 1505 
0:1:11:894, 1491 
0:1:11:910, 1480 
0:1:11:926, 1469 
0:1:11:941, 1463 
0:1:11:956, 1458 
0:1:11:971, 1450 
0:1:11:986, 1447 
0:1:12:2, 1436 
0:1:12:18, 1425 
0:1:12:34, 1415 
0:1:12:50, 1408 
0:1:12:65, 1427 
0:1:12:80, 1482 
0:1:12:96, 1624 
0:1:12:111, 1847 
0:1:12:127, 2200 
0:1:12:143, 2484 
0:1:12:158, 2735 
0:1:12:173, 2948 
0:1:12:188, 3050 
0:1:12:203, 3077 
0:1:12:218, 3052 
0:1:12:233, 2954 
0:1:12:249, 2843 
0:1:12:265, 2717 
0:1:12:281, 2627 
0:1:12:297, 2536 
0:1:12:313, 2417 
0:1:12:328, 2281 
0:1:12:344, 2187 
0:1:12:360, 2095 
0:1:12:376, 2049 
0:1:12:392, 2025 
0:1:12:407, 2026 
0:1:12:423, 2053 
0:1:12:438, 2076 
0:1:12:453, 2107 
0:1:12:469, 2127 
0:1:12:485, 2135 
0:1:12:501, 2120 
0:1:12:517, 2087 
0:1:12:533, 2031 
0:1:12:549, 1984 
0:1:12:565, 1934 
0:1:12:581, 1882 
0:1:12:597, 1828 
0:1:12:612, 1784 
0:1:12:627, 1740 
0:1:12:643, 1688 
0:1:12:658, 1644 
0:1:12:673, 1613 
0:1:12:689, 1589 
0:1:12:705, 1559 
0:1:12:721, 1534 
0:1:12:736, 1516 
0:1:12:752, 1503 
0:1:12:768, 1488 
0:1:12:784, 1477 
0:1:12:799, 1471 
0:1:12:814, 1467 
0:1:12:829, 1462 
0:1:12:845, 1455 
0:1:12:861, 1443 
0:1:12:877, 1433 
0:1:12:892, 1418 
0:1:12:907, 1409 
0:1:12:923, 1403 
0:1:12:938, 1413 
0:1:12:954, 1490 
0:1:12:969, 1630 
0:1:12:984, 1845 
0:1:13:0, 2106 
0:1:13:15, 2429 
0:1:13:30, 2641 
0:1:13:46, 2836 
0:1:13:62, 2886 
0:1:13:77, 2870 
0:1:13:93, 2797 
0:1:13:109, 2687 
0:1:13:125, 2533 
0:1:13:140, 2443 
0:1:13:155, 2331 
0:1:13:171, 2229 
0:1:13:187, 2137 
0:1:13:203, 2050 
0:1:13:219, 1976 
0:1:13:234, 1928 
0:1:13:250, 1895 
0:1:13:266, 1894 
0:1:13:281, 1909 
0:1:13:297, 1921 
0:1:13:312, 1952 
0:1:13:328, 1964 
0:1:13:344, 1964 
0:1:13:359, 1952 
0:1:13:374, 1922 
0:1:13:389, 1881 
0:1:13:405, 1835 
0:1:13:421, 1775 
0:1:13:436, 1731 
0:1:13:452, 1696 
0:1:13:467, 1648 
0:1:13:483, 1598 
0:1:13:498, 1556 
0:1:13:514, 1526 
0:1:13:529, 1499 
0:1:13:545, 1493 
0:1:13:560, 1470 
0:1:13:575, 1450 
0:1:13:590, 1433 
0:1:13:605, 1417 
0:1:13:620, 1391 
0:1:13:635, 1369 
0:1:13:651, 1353 
0:1:13:667, 1337 
0:1:13:683, 1328 
0:1:13:699, 1327 
0:1:13:714, 1320 
0:1:13:729, 1316 
0:1:13:745, 1313 
0:1:13:761, 1308 
0:1:13:777, 1302 
0:1:13:792, 1311 
0:1:13:807, 1361 
0:1:13:822, 1479 
0:1:13:837, 1664 
0:1:13:853, 1883 
0:1:13:869, 2102 
0:1:13:885, 2340 
0:1:13:901, 2443 
0:1:13:916, 2476 
0:1:13:931, 2456 
0:1:13:947, 2399 
0:1:13:963, 2320 
0:1:13:979, 2232 
0:1:13:995, 2134 
0:1:14:11, 2058 
0:1:14:27, 1987 
0:1:14:42, 1922 
0:1:14:57, 1873 
0:1:14:72, 1818 
0:1:14:88, 1780 
0:1:14:103, 1773 
0:1:14:118, 1788 
0:1:14:133, 1814 
0:1:14:149, 1856 
0:1:14:165, 1897 
0:1:14:181, 1931 
0:1:14:197, 1948 
0:1:14:213, 1955 
0:1:14:229, 1939 
0:1:14:245, 1902 
0:1:14:261, 1861 
0:1:14:277, 1805 
0:1:14:292, 1763 
0:1:14:307, 1722 
0:1:14:323, 1690 
0:1:14:339, 1665 
0:1:14:354, 1647 
0:1:14:370, 1626 
0:1:14:386, 1608 
0:1:14:402, 1587 
0:1:14:418, 1571 
0:1:14:434, 1560 
0:1:14:450, 1552 
0:1:14:466, 1552 
0:1:14:481, 1550 
0:1:14:497, 1545 
0:1:14:513, 1542 
0:1:14:529, 1537 
0:1:14:544, 1540 
0:1:14:560, 1551 
0:1:14:575, 1588 
0:1:14:591, 1711 
0:1:14:607, 1873 
0:1:14:623, 2072 
0:1:14:639, 2270 
0:1:14:655, 2476 
0:1:14:670, 2584 
0:1:14:686, 2628 
0:1:14:702, 2629 
0:1:14:718, 2586 
0:1:14:733, 2497 
0:1:14:749, 2434 
0:1:14:764, 2356 
0:1:14:779, 2281 
0:1:14:795, 2209 
0:1:14:811, 2148 
0:1:14:827, 2077 
0:1:14:842, 2027 
0:1:14:857, 1991 
0:1:14:873, 1974 
0:1:14:889, 1979 
0:1:14:905, 2009 
0:1:14:921, 2048 
0:1:14:936, 2082 
0:1:14:952, 2100 
0:1:14:968, 2116 
0:1:14:984, 2113 
0:1:14:999, 2088 
0:1:15:14, 2054 
0:1:15:29, 2001 
0:1:15:45, 1958 
0:1:15:61, 1919 
0:1:15:76, 1889 
0:1:15:91, 1857 
0:1:15:106, 1828 
0:1:15:122, 1798 
0:1:15:139, 1774 
0:1:15:155, 1759 
0:1:15:171, 1744 
0:1:15:187, 1730 
0:1:15:202, 1720 
0:1:15:217, 1707 
0:1:15:233, 1694 
0:1:15:248, 1682 
0:1:15:263, 1672 
0:1:15:279, 1672 
0:1:15:295, 1676 
0:1:15:311, 1693 
0:1:15:326, 1715 
0:1:15:342, 1800 
0:1:15:358, 1904 
0:1:15:374, 2088 
0:1:15:389, 2290 
0:1:15:405, 2474 
0:1:15:421, 2626 
0:1:15:437, 2704 
0:1:15:453, 2725 
0:1:15:468, 2701 
0:1:15:483, 2649 
0:1:15:498, 2582 
0:1:15:514, 2494 
0:1:15:530, 2418 
0:1:15:545, 2380 
0:1:15:561, 2334 
0:1:15:576, 2288 
0:1:15:592, 2242 
0:1:15:608, 2210 
0:1:15:624, 2177 
0:1:15:639, 2152 
0:1:15:655, 2147 
0:1:15:671, 2150 
0:1:15:687, 2164 
0:1:15:702, 2186 
0:1:15:717, 2199 
0:1:15:732, 2201 
0:1:15:747, 2183 
0:1:15:763, 2161 
0:1:15:779, 2128 
0:1:15:795, 2091 
0:1:15:811, 2050 
0:1:15:827, 2013 
0:1:15:843, 1972 
0:1:15:859, 1942 
0:1:15:875, 1906 
0:1:15:891, 1874 
0:1:15:906, 1848 
0:1:15:921, 1825 
0:1:15:937, 1814 
0:1:15:952, 1795 
0:1:15:968, 1784 
0:1:15:984, 1768 
0:1:16:0, 1762 
0:1:16:16, 1759 
0:1:16:31, 1752 
0:1:16:47, 1743 
0:1:16:63, 1753 
0:1:16:79, 1817 
0:1:16:95, 1899 
0:1:16:111, 2059 
0:1:16:127, 2294 
0:1:16:143, 2474 
0:1:16:159, 2629 
0:1:16:174, 2701 
0:1:16:189, 2743 
0:1:16:204, 2732 
0:1:16:219, 2687 
0:1:16:235, 2631 
0:1:16:250, 2573 
0:1:16:266, 2501 
0:1:16:282, 2457 
0:1:16:298, 2418 
0:1:16:314, 2375 
0:1:16:330, 2324 
0:1:16:346, 2274 
0:1:16:361, 2239 
0:1:16:376, 2202 
0:1:16:392, 2182 
0:1:16:407, 2177 
0:1:16:422, 2180 
0:1:16:437, 2194 
0:1:16:453, 2207 
0:1:16:468, 2206 
0:1:16:484, 2197 
0:1:16:499, 2173 
0:1:16:515, 2124 
0:1:16:531, 2108 
0:1:16:547, 2072 
0:1:16:563, 2038 
0:1:16:579, 2014 
0:1:16:595, 1989 
0:1:16:610, 1966 
0:1:16:626, 1932 
0:1:16:641, 1905 
0:1:16:656, 1877 
0:1:16:671, 1854 
0:1:16:687, 1830 
0:1:16:703, 1806 
0:1:16:719, 1795 
0:1:16:734, 1783 
0:1:16:750, 1774 
0:1:16:766, 1770 
0:1:16:782, 1762 
0:1:16:798, 1760 
0:1:16:813, 1754 
0:1:16:828, 1745 
0:1:16:844, 1734 
0:1:16:860, 1752 
0:1:16:875, 1819 
0:1:16:890, 1945 
0:1:16:905, 2116 
0:1:16:921, 2353 
0:1:16:937, 2523 
0:1:16:953, 2662 
0:1:16:969, 2731 
0:1:16:985, 2731 
0:1:17:1, 2700 
0:1:17:17, 2647 
0:1:17:32, 2591 
0:1:17:48, 2539 
0:1:17:64, 2480 
0:1:17:80, 2438 
0:1:17:96, 2371 
0:1:17:111, 2317 
0:1:17:127, 2269 
0:1:17:143, 2232 
0:1:17:159, 2211 
0:1:17:175, 2205 
0:1:17:191, 2205 
0:1:17:207, 2205 
0:1:17:222, 2207 
0:1:17:237, 2215 
0:1:17:253, 2226 
0:1:17:269, 2222 
0:1:17:284, 2206 
0:1:17:299, 2188 
0:1:17:315, 2156 
0:1:17:331, 2121 
0:1:17:346, 2080 
0:1:17:361, 2039 
0:1:17:376, 1996 
0:1:17:392, 1945 
0:1:17:408, 1909 
0:1:17:423, 1882 
0:1:17:439, 1857 
0:1:17:455, 1837 
0:1:17:471, 1813 
0:1:17:487, 1801 
0:1:17:503, 1789 
0:1:17:518, 1779 
0:1:17:533, 1771 
0:1:17:549, 1762 
0:1:17:565, 1746 
0:1:17:580, 1735 
0:1:17:595, 1744 
0:1:17:610, 1783 
0:1:17:626, 1886 
0:1:17:641, 1994 
0:1:17:657, 2172 
0:1:17:673, 2405 
0:1:17:689, 2562 
0:1:17:705, 2694 
0:1:17:721, 2747 
0:1:17:736, 2753 
0:1:17:752, 2722 
0:1:17:768, 2676 
0:1:17:783, 2617 
0:1:17:798, 2580 
0:1:17:813, 2517 
0:1:17:828, 2478 
0:1:17:843, 2421 
0:1:17:858, 2378 
0:1:17:874, 2309 
0:1:17:890, 2262 
0:1:17:906, 2226 
0:1:17:922, 2212 
0:1:17:937, 2211 
0:1:17:952, 2213 
0:1:17:968, 2212 
0:1:17:984, 2209 
0:1:18:0, 2191 
0:1:18:15, 2162 
0:1:18:31, 2133 
0:1:18:46, 2091 
0:1:18:61, 2038 
0:1:18:76, 1994 
0:1:18:91, 1952 
0:1:18:107, 1915 
0:1:18:123, 1889 
0:1:18:138, 1850 
0:1:18:154, 1820 
0:1:18:170, 1794 
0:1:18:186, 1772 
0:1:18:201, 1749 
0:1:18:216, 1733 
0:1:18:231, 1734 
0:1:18:247, 1733 
0:1:18:263, 1724 
0:1:18:279, 1715 
0:1:18:294, 1700 
0:1:18:309, 1691 
0:1:18:324, 1713 
0:1:18:340, 1785 
0:1:18:356, 1916 
0:1:18:372, 2150 
0:1:18:388, 2252 
0:1:18:404, 2450 
0:1:18:420, 2620 
0:1:18:436, 2672 
0:1:18:452, 2733 
0:1:18:468, 2804 
0:1:18:484, 2828 
0:1:18:499, 2811 
0:1:18:514, 2767 
0:1:18:530, 2714 
0:1:18:546, 2659 
0:1:18:562, 2612 
0:1:18:578, 2556 
0:1:18:594, 2479 
0:1:18:609, 2416 
0:1:18:624, 2369 
0:1:18:640, 2308 
0:1:18:656, 2260 
0:1:18:672, 2226 
0:1:18:688, 2206 
0:1:18:704, 2199 
0:1:18:720, 2193 
0:1:18:735, 2181 
0:1:18:750, 2165 
0:1:18:765, 2149 
0:1:18:781, 2107 
0:1:18:797, 2068 
0:1:18:813, 2021 
0:1:18:829, 1960 
0:1:18:845, 1912 
0:1:18:860, 1879 
0:1:18:876, 1831 
0:1:18:892, 1788 
0:1:18:908, 1750 
0:1:18:923, 1725 
0:1:18:939, 1704 
0:1:18:955, 1691 
0:1:18:971, 1681 
0:1:18:986, 1669 
0:1:19:1, 1654 
0:1:19:16, 1642 
0:1:19:31, 1629 
0:1:19:47, 1615 
0:1:19:63, 1603 
0:1:19:79, 1596 
0:1:19:95, 1590 
0:1:19:111, 1582 
0:1:19:127, 1579 
0:1:19:143, 1578 
0:1:19:159, 1574 
0:1:19:175, 1573 
0:1:19:191, 1564 
0:1:19:207, 1553 
0:1:19:222, 1537 
0:1:19:237, 1521 
0:1:19:253, 1509 
0:1:19:268, 1525 
0:1:19:284, 1588 
0:1:19:300, 1683 
0:1:19:316, 1929 
0:1:19:332, 2175 
0:1:19:348, 2432 
0:1:19:364, 2728 
0:1:19:380, 2880 
0:1:19:395, 2905 
0:1:19:410, 2959 
0:1:19:425, 2955 
0:1:19:441, 2914 
0:1:19:456, 2854 
0:1:19:471, 2785 
0:1:19:486, 2731 
0:1:19:502, 2660 
0:1:19:517, 2591 
0:1:19:533, 2529 
0:1:19:548, 2465 
0:1:19:563, 2400 
0:1:19:579, 2331 
0:1:19:595, 2282 
0:1:19:611, 2249 
0:1:19:627, 2240 
0:1:19:643, 2226 
0:1:19:659, 2219 
0:1:19:674, 2211 
0:1:19:689, 2197 
0:1:19:704, 2180 
0:1:19:719, 2161 
0:1:19:735, 2128 
0:1:19:751, 2090 
0:1:19:766, 2045 
0:1:19:782, 1990 
0:1:19:798, 1951 
0:1:19:813, 1887 
0:1:19:829, 1842 
0:1:19:845, 1805 
0:1:19:860, 1769 
0:1:19:875, 1743 
0:1:19:890, 1717 
0:1:19:906, 1696 
0:1:19:921, 1679 
0:1:19:937, 1663 
0:1:19:953, 1652 
0:1:19:969, 1640 
0:1:19:985, 1632 
0:1:20:0, 1627 
0:1:20:16, 1622 
0:1:20:32, 1612 
0:1:20:48, 1605 
0:1:20:64, 1595 
0:1:20:80, 1584 
0:1:20:96, 1571 
0:1:20:111, 1562 
0:1:20:127, 1555 
0:1:20:143, 1545 
0:1:20:158, 1534 
0:1:20:173, 1530 
0:1:20:189, 1523 
0:1:20:205, 1527 
0:1:20:221, 1552 
0:1:20:236, 1660 
0:1:20:252, 1818 
0:1:20:267, 2028 
0:1:20:282, 2262 
0:1:20:298, 2537 
0:1:20:314, 2691 
0:1:20:330, 2811 
0:1:20:346, 2860 
0:1:20:362, 2844 
0:1:20:378, 2773 
0:1:20:393, 2721 
0:1:20:408, 2644 
0:1:20:423, 2557 
0:1:20:438, 2506 
0:1:20:454, 2421 
0:1:20:470, 2352 
0:1:20:485, 2267 
0:1:20:501, 2207 
0:1:20:517, 2160 
0:1:20:533, 2134 
0:1:20:548, 2126 
0:1:20:563, 2130 
0:1:20:578, 2141 
0:1:20:593, 2152 
0:1:20:609, 2152 
0:1:20:624, 2130 
0:1:20:639, 2105 
0:1:20:655, 2062 
0:1:20:671, 2009 
0:1:20:687, 1962 
0:1:20:703, 1928 
0:1:20:718, 1894 
0:1:20:734, 1850 
0:1:20:749, 1807 
0:1:20:764, 1775 
0:1:20:780, 1748 
0:1:20:796, 1724 
0:1:20:812, 1692 
0:1:20:828, 1668 
0:1:20:844, 1654 
0:1:20:859, 1640 
0:1:20:874, 1628 
0:1:20:889, 1619 
0:1:20:905, 1607 
0:1:20:921, 1602 
0:1:20:937, 1597 
0:1:20:953, 1593 
0:1:20:968, 1595 
0:1:20:984, 1597 
0:1:20:999, 1596 
0:1:21:15, 1594 
0:1:21:30, 1585 
0:1:21:46, 1568 
0:1:21:61, 1554 
0:1:21:76, 1559 
0:1:21:91, 1608 
0:1:21:106, 1756 
0:1:21:121, 1948 
0:1:21:137, 2119 
0:1:21:153, 2301 
0:1:21:168, 2537 
0:1:21:183, 2747 
0:1:21:199, 2880 
0:1:21:214, 2930 
0:1:21:230, 2936 
0:1:21:246, 2888 
0:1:21:261, 2790 
0:1:21:277, 2694 
0:1:21:293, 2578 
0:1:21:308, 2512 
0:1:21:323, 2432 
0:1:21:338, 2357 
0:1:21:354, 2280 
0:1:21:370, 2263 
0:1:21:386, 2201 
0:1:21:402, 2155 
0:1:21:417, 2130 
0:1:21:433, 2122 
0:1:21:449, 2128 
0:1:21:464, 2142 
0:1:21:480, 2145 
0:1:21:496, 2136 
0:1:21:511, 2116 
0:1:21:527, 2075 
0:1:21:543, 2011 
0:1:21:559, 1969 
0:1:21:574, 1913 
0:1:21:589, 1864 
0:1:21:604, 1816 
0:1:21:620, 1774 
0:1:21:636, 1735 
0:1:21:651, 1694 
0:1:21:667, 1663 
0:1:21:682, 1649 
0:1:21:697, 1629 
0:1:21:713, 1606 
0:1:21:729, 1587 
0:1:21:745, 1568 
0:1:21:761, 1559 
0:1:21:776, 1552 
0:1:21:791, 1550 
0:1:21:806, 1550 
0:1:21:821, 1548 
0:1:21:837, 1546 
0:1:21:853, 1543 
0:1:21:869, 1545 
0:1:21:885, 1546 
0:1:21:901, 1540 
0:1:21:916, 1533 
0:1:21:931, 1526 
0:1:21:947, 1514 
0:1:21:962, 1509 
0:1:21:978, 1531 
0:1:21:994, 1583 
0:1:22:10, 1726 
0:1:22:25, 1946 
0:1:22:40, 2280 
0:1:22:56, 2554 
0:1:22:72, 2790 
0:1:22:88, 3014 
0:1:22:103, 3074 
0:1:22:118, 3066 
0:1:22:133, 3006 
0:1:22:149, 2887 
0:1:22:165, 2789 
0:1:22:181, 2697 
0:1:22:197, 2631 
0:1:22:212, 2552 
0:1:22:228, 2495 
0:1:22:244, 2421 
0:1:22:259, 2329 
0:1:22:274, 2259 
0:1:22:290, 2192 
0:1:22:306, 2155 
0:1:22:322, 2138 
0:1:22:338, 2137 
0:1:22:353, 2135 
0:1:22:368, 2135 
0:1:22:384, 2130 
0:1:22:400, 2116 
0:1:22:415, 2086 
0:1:22:431, 2052 
0:1:22:447, 1998 
0:1:22:463, 1937 
0:1:22:479, 1891 
0:1:22:494, 1845 
0:1:22:509, 1773 
0:1:22:525, 1720 
0:1:22:540, 1673 
0:1:22:555, 1632 
0:1:22:570, 1616 
0:1:22:586, 1589 
0:1:22:602, 1562 
0:1:22:618, 1554 
0:1:22:635, 1546 
0:1:22:650, 1542 
0:1:22:665, 1529 
0:1:22:682, 1522 
0:1:22:697, 1517 
0:1:22:713, 1507 
0:1:22:728, 1500 
0:1:22:743, 1495 
0:1:22:758, 1488 
0:1:22:774, 1486 
0:1:22:790, 1487 
0:1:22:805, 1487 
0:1:22:820, 1488 
0:1:22:836, 1488 
0:1:22:852, 1479 
0:1:22:868, 1473 
0:1:22:883, 1474 
0:1:22:899, 1506 
0:1:22:915, 1608 
0:1:22:931, 1789 
0:1:22:946, 1974 
0:1:22:961, 2264 
0:1:22:977, 2554 
0:1:22:992, 2803 
0:1:23:8, 3037 
0:1:23:24, 3093 
0:1:23:40, 3100 
0:1:23:56, 3041 
0:1:23:71, 2944 
0:1:23:86, 2831 
0:1:23:102, 2685 
0:1:23:117, 2586 
0:1:23:132, 2493 
0:1:23:148, 2380 
0:1:23:164, 2297 
0:1:23:179, 2201 
0:1:23:194, 2158 
0:1:23:209, 2108 
0:1:23:225, 2092 
0:1:23:241, 2096 
0:1:23:257, 2103 
0:1:23:273, 2110 
0:1:23:289, 2106 
0:1:23:305, 2091 
0:1:23:321, 2068 
0:1:23:337, 2023 
0:1:23:353, 1976 
0:1:23:369, 1911 
0:1:23:384, 1849 
0:1:23:400, 1792 
0:1:23:416, 1730 
0:1:23:431, 1683 
0:1:23:447, 1650 
0:1:23:462, 1614 
0:1:23:477, 1581 
0:1:23:492, 1563 
0:1:23:508, 1540 
0:1:23:524, 1525 
0:1:23:540, 1510 
0:1:23:555, 1497 
0:1:23:570, 1484 
0:1:23:585, 1469 
0:1:23:601, 1455 
0:1:23:617, 1451 
0:1:23:632, 1447 
0:1:23:648, 1447 
0:1:23:663, 1448 
0:1:23:678, 1445 
0:1:23:693, 1450 
0:1:23:709, 1454 
0:1:23:725, 1453 
0:1:23:740, 1454 
0:1:23:756, 1461 
0:1:23:771, 1502 
0:1:23:787, 1612 
0:1:23:802, 1742 
0:1:23:818, 2050 
0:1:23:833, 2340 
0:1:23:849, 2620 
0:1:23:865, 2942 
0:1:23:880, 3044 
0:1:23:896, 3100 
0:1:23:911, 3116 
0:1:23:926, 3094 
0:1:23:942, 3015 
0:1:23:958, 2898 
0:1:23:973, 2770 
0:1:23:989, 2623 
0:1:24:5, 2515 
0:1:24:21, 2394 
0:1:24:37, 2302 
0:1:24:53, 2196 
0:1:24:69, 2143 
0:1:24:85, 2143 
0:1:24:100, 2099 
0:1:24:116, 2081 
0:1:24:132, 2083 
0:1:24:147, 2095 
0:1:24:162, 2122 
0:1:24:178, 2145 
0:1:24:194, 2162 
0:1:24:210, 2161 
0:1:24:226, 2130 
0:1:24:241, 2091 
0:1:24:257, 2040 
0:1:24:273, 1983 
0:1:24:288, 1938 
0:1:24:303, 1877 
0:1:24:319, 1814 
0:1:24:335, 1764 
0:1:24:351, 1718 
0:1:24:366, 1675 
0:1:24:381, 1637 
0:1:24:396, 1607 
0:1:24:412, 1586 
0:1:24:428, 1555 
0:1:24:443, 1541 
0:1:24:458, 1526 
0:1:24:474, 1518 
0:1:24:490, 1518 
0:1:24:505, 1517 
0:1:24:521, 1518 
0:1:24:537, 1515 
0:1:24:552, 1506 
0:1:24:568, 1497 
0:1:24:584, 1492 
0:1:24:599, 1495 
0:1:24:614, 1532 
0:1:24:629, 1630 
0:1:24:645, 1813 
0:1:24:661, 2149 
0:1:24:677, 2456 
0:1:24:693, 2752 
0:1:24:709, 2946 
0:1:24:725, 3164 
0:1:24:741, 3251 
0:1:24:757, 3259 
0:1:24:773, 3166 
0:1:24:789, 3047 
0:1:24:804, 2911 
0:1:24:819, 2772 
0:1:24:834, 2677 
0:1:24:849, 2560 
0:1:24:865, 2428 
0:1:24:881, 2329 
0:1:24:896, 2261 
0:1:24:912, 2187 
0:1:24:928, 2131 
0:1:24:944, 2093 
0:1:24:960, 2081 
0:1:24:976, 2091 
0:1:24:992, 2108 
0:1:25:8, 2128 
0:1:25:24, 2134 
0:1:25:39, 2120 
0:1:25:55, 2087 
0:1:25:70, 2039 
0:1:25:85, 1988 
0:1:25:101, 1915 
0:1:25:116, 1882 
0:1:25:132, 1803 
0:1:25:148, 1745 
0:1:25:163, 1703 
0:1:25:179, 1655 
0:1:25:195, 1624 
0:1:25:210, 1584 
0:1:25:226, 1554 
0:1:25:241, 1533 
0:1:25:256, 1509 
0:1:25:272, 1485 
0:1:25:288, 1467 
0:1:25:303, 1453 
0:1:25:318, 1446 
0:1:25:334, 1446 
0:1:25:350, 1453 
0:1:25:366, 1463 
0:1:25:381, 1467 
0:1:25:396, 1466 
0:1:25:411, 1462 
0:1:25:426, 1451 
0:1:25:441, 1448 
0:1:25:457, 1476 
0:1:25:473, 1616 
0:1:25:489, 1903 
0:1:25:505, 2211 
0:1:25:521, 2543 
0:1:25:536, 2863 
0:1:25:551, 3158 
0:1:25:567, 3281 
0:1:25:583, 3349 
0:1:25:599, 3353 
0:1:25:615, 3252 
0:1:25:630, 3111 
0:1:25:645, 2957 
0:1:25:661, 2882 
0:1:25:677, 2739 
0:1:25:692, 2615 
0:1:25:708, 2497 
0:1:25:724, 2394 
0:1:25:740, 2299 
0:1:25:755, 2237 
0:1:25:771, 2163 
0:1:25:787, 2104 
0:1:25:803, 2083 
0:1:25:819, 2081 
0:1:25:834, 2092 
0:1:25:850, 2104 
0:1:25:865, 2111 
0:1:25:880, 2109 
0:1:25:895, 2098 
0:1:25:911, 2072 
0:1:25:928, 2026 
0:1:25:944, 1989 
0:1:25:959, 1933 
0:1:25:974, 1871 
0:1:25:990, 1805 
0:1:26:5, 1747 
0:1:26:20, 1694 
0:1:26:36, 1645 
0:1:26:52, 1594 
0:1:26:67, 1568 
0:1:26:82, 1542 
0:1:26:97, 1528 
0:1:26:112, 1520 
0:1:26:128, 1503 
0:1:26:144, 1492 
0:1:26:160, 1483 
0:1:26:175, 1469 
0:1:26:190, 1464 
0:1:26:205, 1458 
0:1:26:221, 1446 
0:1:26:237, 1429 
0:1:26:253, 1412 
0:1:26:269, 1395 
0:1:26:285, 1395 
0:1:26:301, 1395 
0:1:26:317, 1428 
0:1:26:332, 1529 
0:1:26:347, 1721 
0:1:26:363, 1929 
0:1:26:379, 2257 
0:1:26:394, 2595 
0:1:26:409, 2895 
0:1:26:425, 3192 
0:1:26:441, 3282 
0:1:26:456, 3284 
0:1:26:472, 3216 
0:1:26:488, 3092 
0:1:26:503, 2942 
0:1:26:518, 2794 
0:1:26:533, 2613 
0:1:26:549, 2478 
0:1:26:564, 2376 
0:1:26:579, 2259 
0:1:26:594, 2152 
0:1:26:610, 2066 
0:1:26:626, 2007 
0:1:26:642, 1976 
0:1:26:658, 1975 
0:1:26:673, 1993 
0:1:26:688, 2018 
0:1:26:704, 2032 
0:1:26:720, 2026 
0:1:26:735, 1988 
0:1:26:751, 1935 
0:1:26:767, 1876 
0:1:26:783, 1828 
0:1:26:798, 1780 
0:1:26:813, 1713 
0:1:26:829, 1640 
0:1:26:845, 1553 
0:1:26:861, 1493 
0:1:26:877, 1441 
0:1:26:893, 1399 
0:1:26:909, 1378 
0:1:26:925, 1361 
0:1:26:941, 1350 
0:1:26:957, 1342 
0:1:26:973, 1332 
0:1:26:989, 1325 
0:1:27:5, 1317 
0:1:27:21, 1309 
0:1:27:36, 1313 
0:1:27:51, 1354 
0:1:27:67, 1496 
0:1:27:83, 1778 
0:1:27:99, 2094 
0:1:27:115, 2535 
0:1:27:131, 2872 
0:1:27:147, 3188 
0:1:27:162, 3351 
0:1:27:177, 3414 
0:1:27:192, 3402 
0:1:27:208, 3320 
0:1:27:224, 3162 
0:1:27:239, 3019 
0:1:27:254, 2878 
0:1:27:269, 2743 
0:1:27:284, 2610 
0:1:27:299, 2472 
0:1:27:315, 2341 
0:1:27:331, 2341 
0:1:27:347, 2229 
0:1:27:363, 2146 
0:1:27:379, 2087 
0:1:27:395, 2076 
0:1:27:411, 2074 
0:1:27:427, 2105 
0:1:27:442, 2133 
0:1:27:458, 2153 
0:1:27:474, 2169 
0:1:27:490, 2163 
0:1:27:505, 2138 
0:1:27:520, 2100 
0:1:27:536, 2043 
0:1:27:552, 1986 
0:1:27:568, 1912 
0:1:27:584, 1853 
0:1:27:599, 1800 
0:1:27:614, 1754 
0:1:27:629, 1725 
0:1:27:645, 1696 
0:1:27:661, 1673 
0:1:27:677, 1651 
0:1:27:693, 1626 
0:1:27:709, 1608 
0:1:27:725, 1612 
0:1:27:741, 1656 
0:1:27:756, 1824 
0:1:27:771, 2051 
0:1:27:787, 2329 
0:1:27:803, 2550 
0:1:27:819, 2814 
0:1:27:834, 3037 
0:1:27:850, 3135 
0:1:27:865, 3144 
0:1:27:881, 3059 
0:1:27:896, 2933 
0:1:27:912, 2787 
0:1:27:927, 2642 
0:1:27:943, 2502 
0:1:27:958, 2404 
0:1:27:973, 2280 
0:1:27:988, 2166 
0:1:28:4, 2069 
0:1:28:20, 1990 
0:1:28:35, 1930 
0:1:28:51, 1898 
0:1:28:67, 1907 
0:1:28:83, 1947 
0:1:28:98, 1987 
0:1:28:113, 2022 
0:1:28:128, 2040 
0:1:28:144, 2035 
0:1:28:160, 2008 
0:1:28:176, 1946 
0:1:28:191, 1892 
0:1:28:206, 1892 
0:1:28:221, 1829 
0:1:28:237, 1770 
0:1:28:253, 1718 
0:1:28:268, 1671 
0:1:28:284, 1617 
0:1:28:300, 1592 
0:1:28:315, 1569 
0:1:28:331, 1543 
0:1:28:347, 1523 
0:1:28:362, 1506 
0:1:28:378, 1489 
0:1:28:394, 1499 
0:1:28:409, 1543 
0:1:28:424, 1653 
0:1:28:439, 1795 
0:1:28:454, 2053 
0:1:28:469, 2282 
0:1:28:485, 2666 
0:1:28:501, 2916 
0:1:28:517, 3127 
0:1:28:533, 3159 
0:1:28:549, 3083 
0:1:28:565, 2969 
0:1:28:581, 2807 
0:1:28:597, 2685 
0:1:28:612, 2581 
0:1:28:628, 2485 
0:1:28:643, 2437 
0:1:28:659, 2341 
0:1:28:674, 2244 
0:1:28:689, 2148 
0:1:28:705, 2071 
0:1:28:720, 2016 
0:1:28:736, 1984 
0:1:28:752, 1970 
0:1:28:768, 1969 
0:1:28:783, 1974 
0:1:28:799, 1975 
0:1:28:815, 1987 
0:1:28:831, 1994 
0:1:28:846, 1987 
0:1:28:862, 1955 
0:1:28:878, 1917 
0:1:28:894, 1882 
0:1:28:909, 1829 
0:1:28:924, 1789 
0:1:28:939, 1737 
0:1:28:955, 1691 
0:1:28:971, 1647 
0:1:28:987, 1595 
0:1:29:3, 1560 
0:1:29:19, 1529 
0:1:29:35, 1514 
0:1:29:51, 1498 
0:1:29:66, 1479 
0:1:29:82, 1464 
0:1:29:98, 1449 
0:1:29:114, 1448 
0:1:29:129, 1488 
0:1:29:144, 1593 
0:1:29:159, 1785 
0:1:29:174, 2040 
0:1:29:190, 2322 
0:1:29:206, 2529 
0:1:29:221, 2783 
0:1:29:237, 2925 
0:1:29:253, 2971 
0:1:29:268, 2952 
0:1:29:283, 2850 
0:1:29:299, 2765 
0:1:29:315, 2622 
0:1:29:331, 2487 
0:1:29:347, 2395 
0:1:29:363, 2310 
0:1:29:378, 2221 
0:1:29:393, 2136 
0:1:29:409, 2035 
0:1:29:425, 1969 
0:1:29:440, 1924 
0:1:29:455, 1913 
0:1:29:470, 1918 
0:1:29:485, 1934 
0:1:29:501, 1948 
0:1:29:517, 1949 
0:1:29:533, 1930 
0:1:29:549, 1900 
0:1:29:565, 1853 
0:1:29:581, 1808 
0:1:29:597, 1760 
0:1:29:612, 1725 
0:1:29:627, 1681 
0:1:29:642, 1638 
0:1:29:658, 1600 
0:1:29:673, 1561 
0:1:29:689, 1531 
0:1:29:705, 1509 
0:1:29:721, 1486 
0:1:29:736, 1470 
0:1:29:752, 1453 
0:1:29:768, 1449 
0:1:29:784, 1446 
0:1:29:800, 1444 
0:1:29:816, 1443 
0:1:29:832, 1442 
0:1:29:847, 1442 
0:1:29:862, 1451 
0:1:29:877, 1472 
0:1:29:893, 1549 
0:1:29:909, 1702 
0:1:29:924, 1863 
0:1:29:940, 2120 
0:1:29:955, 2388 
0:1:29:971, 2566 
0:1:29:986, 2812 
0:1:30:3, 2892 
0:1:30:18, 2903 
0:1:30:34, 2858 
0:1:30:49, 2744 
0:1:30:64, 2662 
0:1:30:79, 2555 
0:1:30:94, 2457 
0:1:30:110, 2362 
0:1:30:126, 2253 
0:1:30:142, 2170 
0:1:30:158, 2107 
0:1:30:174, 2023 
0:1:30:190, 1975 
0:1:30:206, 1946 
0:1:30:222, 1949 
0:1:30:238, 1962 
0:1:30:254, 1982 
0:1:30:270, 1987 
0:1:30:286, 1973 
0:1:30:302, 1953 
0:1:30:317, 1911 
0:1:30:332, 1855 
0:1:30:348, 1823 
0:1:30:363, 1782 
0:1:30:379, 1743 
0:1:30:395, 1698 
0:1:30:411, 1641 
0:1:30:427, 1604 
0:1:30:443, 1563 
0:1:30:459, 1537 
0:1:30:475, 1514 
0:1:30:490, 1498 
0:1:30:505, 1488 
0:1:30:520, 1475 
0:1:30:536, 1468 
0:1:30:551, 1460 
0:1:30:566, 1450 
0:1:30:581, 1448 
0:1:30:597, 1447 
0:1:30:613, 1454 
0:1:30:629, 1454 
0:1:30:644, 1453 
0:1:30:660, 1459 
0:1:30:675, 1455 
0:1:30:691, 1449 
0:1:30:707, 1442 
0:1:30:723, 1444 
0:1:30:738, 1464 
0:1:30:754, 1577 
0:1:30:770, 1745 
0:1:30:785, 1967 
0:1:30:800, 2154 
0:1:30:815, 2390 
0:1:30:832, 2654 
0:1:30:847, 2763 
0:1:30:862, 2800 
0:1:30:877, 2782 
0:1:30:893, 2718 
0:1:30:909, 2696 
0:1:30:924, 2604 
0:1:30:940, 2512 
0:1:30:955, 2423 
0:1:30:971, 2335 
0:1:30:986, 2251 
0:1:31:2, 2159 
0:1:31:17, 2094 
0:1:31:32, 2046 
0:1:31:48, 2012 
0:1:31:64, 1996 
0:1:31:80, 2001 
0:1:31:96, 2026 
0:1:31:112, 2036 
0:1:31:128, 2042 
0:1:31:144, 2041 
0:1:31:159, 2022 
0:1:31:175, 1971 
0:1:31:191, 1928 
0:1:31:207, 1878 
0:1:31:222, 1814 
0:1:31:237, 1784 
0:1:31:252, 1755 
0:1:31:267, 1707 
0:1:31:283, 1682 
0:1:31:299, 1646 
0:1:31:315, 1623 
0:1:31:331, 1593 
0:1:31:347, 1570 
0:1:31:363, 1550 
0:1:31:378, 1532 
0:1:31:393, 1516 
0:1:31:409, 1505 
0:1:31:425, 1498 
0:1:31:440, 1490 
0:1:31:455, 1485 
0:1:31:471, 1482 
0:1:31:486, 1481 
0:1:31:501, 1479 
0:1:31:517, 1475 
0:1:31:533, 1470 
0:1:31:549, 1465 
0:1:31:565, 1476 
0:1:31:581, 1522 
0:1:31:597, 1668 
0:1:31:613, 1856 
0:1:31:628, 2081 
0:1:31:643, 2313 
0:1:31:658, 2526 
0:1:31:673, 2736 
0:1:31:689, 2801 
0:1:31:705, 2810 
0:1:31:720, 2785 
0:1:31:736, 2739 
0:1:31:751, 2678 
0:1:31:767, 2573 
0:1:31:783, 2492 
0:1:31:799, 2419 
0:1:31:815, 2341 
0:1:31:831, 2264 
0:1:31:847, 2194 
0:1:31:863, 2129 
0:1:31:878, 2077 
0:1:31:893, 2044 
0:1:31:908, 2027 
0:1:31:923, 2024 
0:1:31:938, 2029 
0:1:31:953, 2032 
0:1:31:968, 2031 
0:1:31:983, 2030 
0:1:31:999, 2015 
0:1:32:14, 1989 
0:1:32:31, 1941 
0:1:32:47, 1886 
0:1:32:63, 1843 
0:1:32:79, 1796 
0:1:32:94, 1753 
0:1:32:109, 1709 
0:1:32:124, 1668 
0:1:32:139, 1637 
0:1:32:155, 1602 
0:1:32:170, 1573 
0:1:32:185, 1557 
0:1:32:200, 1539 
0:1:32:216, 1529 
0:1:32:232, 1517 
0:1:32:248, 1509 
0:1:32:263, 1497 
0:1:32:279, 1485 
0:1:32:295, 1476 
0:1:32:311, 1476 
0:1:32:327, 1479 
0:1:32:342, 1477 
0:1:32:358, 1471 
0:1:32:373, 1467 
0:1:32:388, 1467 
0:1:32:403, 1469 
0:1:32:418, 1470 
0:1:32:434, 1473 
0:1:32:450, 1468 
0:1:32:466, 1466 
0:1:32:482, 1502 
0:1:32:498, 1577 
0:1:32:514, 1760 
0:1:32:530, 1977 
0:1:32:545, 2167 
0:1:32:561, 2488 
0:1:32:577, 2705 
0:1:32:593, 2887 
0:1:32:609, 2953 
0:1:32:625, 2934 
0:1:32:641, 2868 
0:1:32:656, 2783 
0:1:32:671, 2666 
0:1:32:686, 2570 
0:1:32:702, 2483 
0:1:32:718, 2401 
0:1:32:733, 2309 
0:1:32:749, 2254 
0:1:32:765, 2190 
0:1:32:781, 2144 
0:1:32:797, 2117 
0:1:32:813, 2101 
0:1:32:829, 2104 
0:1:32:844, 2113 
0:1:32:860, 2117 
0:1:32:876, 2117 
0:1:32:891, 2100 
0:1:32:906, 2065 
0:1:32:922, 2025 
0:1:32:938, 1974 
0:1:32:954, 1934 
0:1:32:970, 1871 
0:1:32:986, 1817 
0:1:33:2, 1770 
0:1:33:17, 1718 
0:1:33:32, 1678 
0:1:33:48, 1645 
0:1:33:64, 1609 
0:1:33:80, 1581 
0:1:33:96, 1556 
0:1:33:112, 1538 
0:1:33:128, 1528 
0:1:33:143, 1522 
0:1:33:158, 1519 
0:1:33:173, 1509 
0:1:33:189, 1510 
0:1:33:205, 1509 
0:1:33:221, 1506 
0:1:33:237, 1503 
0:1:33:252, 1501 
0:1:33:268, 1504 
0:1:33:283, 1509 
0:1:33:299, 1512 
0:1:33:314, 1514 
0:1:33:330, 1508 
0:1:33:346, 1499 
0:1:33:361, 1514 
0:1:33:376, 1558 
0:1:33:391, 1673 
0:1:33:406, 1859 
0:1:33:422, 2037 
0:1:33:438, 2303 
0:1:33:454, 2572 
0:1:33:469, 2825 
0:1:33:485, 2980 
0:1:33:501, 3049 
0:1:33:517, 3032 
0:1:33:532, 2953 
0:1:33:548, 2843 
0:1:33:564, 2783 
0:1:33:579, 2722 
0:1:33:595, 2596 
0:1:33:611, 2489 
0:1:33:626, 2370 
0:1:33:641, 2303 
0:1:33:656, 2226 
0:1:33:672, 2148 
0:1:33:687, 2101 
0:1:33:703, 2069 
0:1:33:719, 2059 
0:1:33:734, 2065 
0:1:33:750, 2077 
0:1:33:766, 2095 
0:1:33:782, 2112 
0:1:33:798, 2115 
0:1:33:813, 2099 
0:1:33:829, 2067 
0:1:33:845, 2010 
0:1:33:860, 1960 
0:1:33:875, 1911 
0:1:33:891, 1861 
0:1:33:906, 1804 
0:1:33:922, 1763 
0:1:33:937, 1722 
0:1:33:953, 1689 
0:1:33:968, 1658 
0:1:33:984, 1636 
0:1:34:0, 1608 
0:1:34:16, 1583 
0:1:34:31, 1562 
0:1:34:47, 1543 
0:1:34:63, 1528 
0:1:34:79, 1520 
0:1:34:94, 1516 
0:1:34:109, 1509 
0:1:34:125, 1513 
0:1:34:141, 1518 
0:1:34:157, 1521 
0:1:34:173, 1517 
0:1:34:189, 1515 
0:1:34:204, 1508 
0:1:34:220, 1502 
0:1:34:236, 1501 
0:1:34:252, 1497 
0:1:34:268, 1493 
0:1:34:284, 1510 
0:1:34:299, 1549 
0:1:34:314, 1659 
0:1:34:329, 1849 
0:1:34:344, 2105 
0:1:34:360, 2475 
0:1:34:376, 2750 
0:1:34:392, 2944 
0:1:34:408, 3076 
0:1:34:423, 3161 
0:1:34:439, 3157 
0:1:34:454, 3108 
0:1:34:470, 3003 
0:1:34:486, 2877 
0:1:34:502, 2743 
0:1:34:518, 2573 
0:1:34:534, 2419 
0:1:34:550, 2310 
0:1:34:565, 2216 
0:1:34:580, 2136 
0:1:34:596, 2094 
0:1:34:612, 2067 
0:1:34:628, 2065 
0:1:34:643, 2085 
0:1:34:659, 2118 
0:1:34:675, 2154 
0:1:34:691, 2167 
0:1:34:707, 2168 
0:1:34:723, 2143 
0:1:34:739, 2103 
0:1:34:754, 2057 
0:1:34:770, 2023 
0:1:34:786, 1954 
0:1:34:801, 1925 
0:1:34:816, 1869 
0:1:34:831, 1818 
0:1:34:847, 1756 
0:1:34:863, 1718 
0:1:34:878, 1682 
0:1:34:894, 1648 
0:1:34:910, 1619 
0:1:34:926, 1594 
0:1:34:942, 1578 
0:1:34:958, 1562 
0:1:34:974, 1546 
0:1:34:989, 1532 
0:1:35:5, 1526 
0:1:35:21, 1517 
0:1:35:36, 1513 
0:1:35:51, 1511 
0:1:35:67, 1511 
0:1:35:83, 1515 
0:1:35:98, 1515 
0:1:35:114, 1515 
0:1:35:130, 1516 
0:1:35:146, 1520 
0:1:35:162, 1553 
0:1:35:178, 1655 
0:1:35:194, 1895 
0:1:35:209, 2097 
0:1:35:225, 2408 
0:1:35:241, 2717 
0:1:35:257, 2982 
0:1:35:272, 3196 
0:1:35:287, 3280 
0:1:35:303, 3277 
0:1:35:319, 3176 
0:1:35:335, 3057 
0:1:35:351, 2923 
0:1:35:367, 2786 
0:1:35:383, 2660 
0:1:35:399, 2571 
0:1:35:414, 2485 
0:1:35:429, 2382 
0:1:35:445, 2284 
0:1:35:460, 2199 
0:1:35:475, 2135 
0:1:35:491, 2096 
0:1:35:506, 2080 
0:1:35:521, 2080 
0:1:35:537, 2089 
0:1:35:552, 2113 
0:1:35:567, 2120 
0:1:35:582, 2118 
0:1:35:598, 2097 
0:1:35:613, 2066 
0:1:35:628, 2036 
0:1:35:643, 1990 
0:1:35:659, 1942 
0:1:35:675, 1875 
0:1:35:690, 1836 
0:1:35:705, 1780 
0:1:35:721, 1723 
0:1:35:736, 1665 
0:1:35:751, 1637 
0:1:35:767, 1601 
0:1:35:783, 1576 
0:1:35:799, 1554 
0:1:35:815, 1539 
0:1:35:831, 1529 
0:1:35:848, 1517 
0:1:35:864, 1506 
0:1:35:880, 1489 
0:1:35:896, 1481 
0:1:35:912, 1471 
0:1:35:928, 1467 
0:1:35:943, 1467 
0:1:35:959, 1468 
0:1:35:974, 1471 
0:1:35:989, 1476 
0:1:36:5, 1479 
0:1:36:21, 1472 
0:1:36:36, 1467 
0:1:36:51, 1464 
0:1:36:67, 1473 
0:1:36:82, 1490 
0:1:36:98, 1573 
0:1:36:113, 1729 
0:1:36:129, 1967 
0:1:36:145, 2273 
0:1:36:161, 2683 
0:1:36:176, 2980 
0:1:36:192, 3198 
0:1:36:207, 3340 
0:1:36:222, 3391 
0:1:36:237, 3356 
0:1:36:253, 3256 
0:1:36:268, 3119 
0:1:36:284, 2966 
0:1:36:300, 2820 
0:1:36:315, 2650 
0:1:36:332, 2526 
0:1:36:347, 2413 
0:1:36:363, 2307 
0:1:36:378, 2218 
0:1:36:394, 2155 
0:1:36:409, 2119 
0:1:36:424, 2095 
0:1:36:439, 2094 
0:1:36:454, 2099 
0:1:36:469, 2115 
0:1:36:485, 2138 
0:1:36:500, 2161 
0:1:36:515, 2162 
0:1:36:531, 2148 
0:1:36:547, 2112 
0:1:36:563, 2066 
0:1:36:579, 1995 
0:1:36:595, 1949 
0:1:36:611, 1870 
0:1:36:627, 1812 
0:1:36:643, 1759 
0:1:36:659, 1707 
0:1:36:674, 1679 
0:1:36:689, 1650 
0:1:36:705, 1612 
0:1:36:721, 1578 
0:1:36:737, 1550 
0:1:36:753, 1525 
0:1:36:769, 1505 
0:1:36:785, 1489 
0:1:36:801, 1481 
0:1:36:817, 1476 
0:1:36:832, 1472 
0:1:36:848, 1464 
0:1:36:864, 1461 
0:1:36:880, 1460 
0:1:36:896, 1457 
0:1:36:911, 1453 
0:1:36:926, 1454 
0:1:36:942, 1451 
0:1:36:958, 1449 
0:1:36:974, 1452 
0:1:36:990, 1450 
0:1:37:6, 1447 
0:1:37:22, 1445 
0:1:37:38, 1452 
0:1:37:54, 1521 
0:1:37:70, 1664 
0:1:37:86, 1898 
0:1:37:102, 2210 
0:1:37:117, 2551 
0:1:37:132, 2876 
0:1:37:147, 3174 
0:1:37:162, 3350 
0:1:37:178, 3422 
0:1:37:194, 3406 
0:1:37:210, 3348 
0:1:37:226, 3189 
0:1:37:242, 3071 
0:1:37:257, 2906 
0:1:37:273, 2751 
0:1:37:288, 2609 
0:1:37:304, 2477 
0:1:37:319, 2383 
0:1:37:335, 2250 
0:1:37:350, 2187 
0:1:37:365, 2128 
0:1:37:380, 2101 
0:1:37:395, 2096 
0:1:37:410, 2114 
0:1:37:426, 2143 
0:1:37:442, 2169 
0:1:37:458, 2202 
0:1:37:474, 2209 
0:1:37:490, 2189 
0:1:37:505, 2149 
0:1:37:521, 2094 
0:1:37:536, 2049 
0:1:37:551, 1989 
0:1:37:566, 1928 
0:1:37:582, 1873 
0:1:37:598, 1808 
0:1:37:613, 1758 
0:1:37:628, 1708 
0:1:37:643, 1666 
0:1:37:658, 1634 
0:1:37:674, 1601 
0:1:37:690, 1571 
0:1:37:706, 1540 
0:1:37:722, 1519 
0:1:37:737, 1498 
0:1:37:752, 1482 
0:1:37:768, 1471 
0:1:37:784, 1459 
0:1:37:800, 1455 
0:1:37:816, 1450 
0:1:37:832, 1447 
0:1:37:847, 1450 
0:1:37:862, 1451 
0:1:37:878, 1458 
0:1:37:893, 1466 
0:1:37:908, 1471 
0:1:37:923, 1470 
0:1:37:939, 1471 
0:1:37:955, 1473 
0:1:37:971, 1500 
0:1:37:987, 1589 
0:1:38:2, 1756 
0:1:38:17, 2013 
0:1:38:33, 2330 
0:1:38:49, 2742 
0:1:38:65, 3032 
0:1:38:80, 3275 
0:1:38:95, 3379 
0:1:38:111, 3380 
0:1:38:127, 3293 
0:1:38:142, 3162 
0:1:38:158, 3002 
0:1:38:174, 2841 
0:1:38:190, 2686 
0:1:38:205, 2543 
0:1:38:221, 2418 
0:1:38:237, 2271 
0:1:38:252, 2168 
0:1:38:267, 2092 
0:1:38:283, 2052 
0:1:38:299, 2026 
0:1:38:314, 2028 
0:1:38:329, 2048 
0:1:38:345, 2086 
0:1:38:361, 2128 
0:1:38:377, 2155 
0:1:38:393, 2163 
0:1:38:409, 2151 
0:1:38:425, 2116 
0:1:38:440, 2072 
0:1:38:456, 2020 
0:1:38:472, 1943 
0:1:38:488, 1898 
0:1:38:504, 1829 
0:1:38:520, 1774 
0:1:38:536, 1726 
0:1:38:551, 1679 
0:1:38:566, 1645 
0:1:38:582, 1618 
0:1:38:598, 1587 
0:1:38:613, 1557 
0:1:38:628, 1536 
0:1:38:643, 1512 
0:1:38:658, 1496 
0:1:38:674, 1479 
0:1:38:689, 1476 
0:1:38:705, 1469 
0:1:38:721, 1455 
0:1:38:736, 1443 
0:1:38:752, 1433 
0:1:38:767, 1427 
0:1:38:782, 1430 
0:1:38:797, 1434 
0:1:38:812, 1435 
0:1:38:828, 1437 
0:1:38:844, 1441 
0:1:38:860, 1449 
0:1:38:876, 1492 
0:1:38:892, 1604 
0:1:38:908, 1875 
0:1:38:924, 2189 
0:1:38:940, 2545 
0:1:38:956, 2898 
0:1:38:972, 3233 
0:1:38:988, 3402 
0:1:39:4, 3532 
0:1:39:19, 3521 
0:1:39:34, 3429 
0:1:39:50, 3285 
0:1:39:66, 3080 
0:1:39:82, 2962 
0:1:39:98, 2778 
0:1:39:114, 2639 
0:1:39:130, 2477 
0:1:39:145, 2365 
0:1:39:161, 2265 
0:1:39:177, 2166 
0:1:39:193, 2127 
0:1:39:208, 2094 
0:1:39:223, 2089 
0:1:39:239, 2100 
0:1:39:254, 2128 
0:1:39:269, 2154 
0:1:39:285, 2172 
0:1:39:301, 2174 
0:1:39:317, 2156 
0:1:39:333, 2138 
0:1:39:348, 2103 
0:1:39:363, 2049 
0:1:39:378, 1976 
0:1:39:394, 1912 
0:1:39:410, 1865 
0:1:39:425, 1805 
0:1:39:441, 1745 
0:1:39:457, 1683 
0:1:39:473, 1644 
0:1:39:488, 1606 
0:1:39:503, 1571 
0:1:39:519, 1537 
0:1:39:535, 1521 
0:1:39:551, 1506 
0:1:39:567, 1493 
0:1:39:582, 1476 
0:1:39:597, 1466 
0:1:39:613, 1462 
0:1:39:629, 1459 
0:1:39:644, 1462 
0:1:39:659, 1467 
0:1:39:674, 1467 
0:1:39:689, 1469 
0:1:39:705, 1476 
0:1:39:720, 1478 
0:1:39:735, 1474 
0:1:39:750, 1465 
0:1:39:766, 1456 
0:1:39:782, 1446 
0:1:39:798, 1442 
0:1:39:813, 1450 
0:1:39:828, 1502 
0:1:39:844, 1675 
0:1:39:859, 1918 
0:1:39:874, 2248 
0:1:39:890, 2612 
0:1:39:905, 2960 
0:1:39:920, 3281 
0:1:39:935, 3467 
0:1:39:951, 3534 
0:1:39:967, 3509 
0:1:39:983, 3380 
0:1:39:999, 3232 
0:1:40:15, 3023 
0:1:40:30, 2902 
0:1:40:45, 2754 
0:1:40:61, 2617 
0:1:40:76, 2492 
0:1:40:92, 2359 
0:1:40:107, 2287 
0:1:40:123, 2191 
0:1:40:138, 2145 
0:1:40:155, 2117 
0:1:40:170, 2111 
0:1:40:185, 2125 
0:1:40:200, 2149 
0:1:40:215, 2170 
0:1:40:231, 2188 
0:1:40:247, 2189 
0:1:40:263, 2176 
0:1:40:279, 2150 
0:1:40:295, 2105 
0:1:40:311, 2043 
0:1:40:327, 1953 
0:1:40:342, 1884 
0:1:40:358, 1838 
0:1:40:374, 1782 
0:1:40:390, 1742 
0:1:40:405, 1696 
0:1:40:420, 1664 
0:1:40:435, 1626 
0:1:40:451, 1593 
0:1:40:466, 1565 
0:1:40:482, 1537 
0:1:40:499, 1510 
0:1:40:514, 1490 
0:1:40:530, 1475 
0:1:40:545, 1468 
0:1:40:562, 1470 
0:1:40:577, 1468 
0:1:40:593, 1469 
0:1:40:609, 1469 
0:1:40:624, 1466 
0:1:40:640, 1462 
0:1:40:655, 1463 
0:1:40:671, 1465 
0:1:40:686, 1467 
0:1:40:702, 1470 
0:1:40:717, 1470 
0:1:40:733, 1468 
0:1:40:749, 1462 
0:1:40:765, 1461 
0:1:40:781, 1498 
0:1:40:797, 1608 
0:1:40:812, 1821 
0:1:40:828, 2121 
0:1:40:844, 2465 
0:1:40:860, 2815 
0:1:40:876, 3119 
0:1:40:891, 3329 
0:1:40:906, 3455 
0:1:40:921, 3485 
0:1:40:936, 3403 
0:1:40:951, 3277 
0:1:40:967, 3123 
0:1:40:982, 2955 
0:1:40:998, 2797 
0:1:41:14, 2721 
0:1:41:30, 2574 
0:1:41:46, 2445 
0:1:41:62, 2329 
0:1:41:77, 2246 
0:1:41:92, 2151 
0:1:41:107, 2083 
0:1:41:122, 2046 
0:1:41:137, 2043 
0:1:41:153, 2071 
0:1:41:168, 2109 
0:1:41:184, 2145 
0:1:41:199, 2167 
0:1:41:215, 2178 
0:1:41:231, 2162 
0:1:41:247, 2132 
0:1:41:262, 2090 
0:1:41:278, 2038 
0:1:41:294, 1994 
0:1:41:309, 1930 
0:1:41:325, 1885 
0:1:41:340, 1826 
0:1:41:355, 1772 
0:1:41:370, 1727 
0:1:41:386, 1678 
0:1:41:401, 1633 
0:1:41:417, 1594 
0:1:41:432, 1550 
0:1:41:448, 1522 
0:1:41:463, 1499 
0:1:41:478, 1490 
0:1:41:494, 1480 
0:1:41:510, 1471 
0:1:41:526, 1463 
0:1:41:541, 1456 
0:1:41:556, 1451 
0:1:41:572, 1452 
0:1:41:587, 1451 
0:1:41:602, 1448 
0:1:41:618, 1453 
0:1:41:634, 1455 
0:1:41:650, 1456 
0:1:41:666, 1464 
0:1:41:681, 1464 
0:1:41:697, 1465 
0:1:41:713, 1481 
0:1:41:728, 1527 
0:1:41:743, 1660 
0:1:41:759, 1888 
0:1:41:774, 2193 
0:1:41:790, 2543 
0:1:41:807, 2885 
0:1:41:822, 3198 
0:1:41:837, 3392 
0:1:41:852, 3472 
0:1:41:868, 3449 
0:1:41:884, 3348 
0:1:41:900, 3194 
0:1:41:915, 3018 
0:1:41:931, 2848 
0:1:41:947, 2683 
0:1:41:962, 2525 
0:1:41:977, 2378 
0:1:41:992, 2219 
0:1:42:8, 2116 
0:1:42:24, 2041 
0:1:42:39, 1996 
0:1:42:55, 1993 
0:1:42:70, 2017 
0:1:42:86, 2068 
0:1:42:101, 2115 
0:1:42:117, 2149 
0:1:42:133, 2167 
0:1:42:148, 2173 
0:1:42:164, 2153 
0:1:42:179, 2114 
0:1:42:194, 2057 
0:1:42:210, 1988 
0:1:42:225, 1921 
0:1:42:241, 1852 
0:1:42:257, 1775 
0:1:42:272, 1721 
0:1:42:288, 1671 
0:1:42:304, 1633 
0:1:42:319, 1595 
0:1:42:334, 1568 
0:1:42:349, 1546 
0:1:42:364, 1519 
0:1:42:380, 1498 
0:1:42:395, 1480 
0:1:42:411, 1465 
0:1:42:426, 1452 
0:1:42:442, 1446 
0:1:42:457, 1442 
0:1:42:473, 1439 
0:1:42:489, 1441 
0:1:42:505, 1454 
0:1:42:521, 1456 
0:1:42:536, 1456 
0:1:42:551, 1454 
0:1:42:567, 1451 
0:1:42:583, 1477 
0:1:42:598, 1538 
0:1:42:614, 1700 
0:1:42:630, 1960 
0:1:42:645, 2292 
0:1:42:661, 2655 
0:1:42:676, 2998 
0:1:42:692, 3241 
0:1:42:708, 3406 
0:1:42:724, 3533 
0:1:42:739, 3520 
0:1:42:755, 3424 
0:1:42:770, 3281 
0:1:42:785, 3145 
0:1:42:802, 2972 
0:1:42:818, 2810 
0:1:42:833, 2732 
0:1:42:849, 2589 
0:1:42:864, 2460 
0:1:42:880, 2341 
0:1:42:896, 2236 
0:1:42:911, 2155 
0:1:42:927, 2097 
0:1:42:942, 2071 
0:1:42:957, 2072 
0:1:42:972, 2088 
0:1:42:987, 2115 
0:1:43:2, 2140 
0:1:43:18, 2159 
0:1:43:34, 2160 
0:1:43:51, 2138 
0:1:43:67, 2102 
0:1:43:83, 2058 
0:1:43:98, 2004 
0:1:43:113, 1937 
0:1:43:129, 1854 
0:1:43:144, 1790 
0:1:43:160, 1728 
0:1:43:176, 1692 
0:1:43:191, 1647 
0:1:43:207, 1602 
0:1:43:222, 1566 
0:1:43:237, 1537 
0:1:43:253, 1505 
0:1:43:269, 1488 
0:1:43:285, 1473 
0:1:43:301, 1463 
0:1:43:317, 1458 
0:1:43:333, 1459 
0:1:43:349, 1462 
0:1:43:365, 1464 
0:1:43:381, 1466 
0:1:43:397, 1468 
0:1:43:413, 1466 
0:1:43:429, 1468 
0:1:43:445, 1466 
0:1:43:460, 1463 
0:1:43:475, 1467 
0:1:43:491, 1479 
0:1:43:507, 1534 
0:1:43:523, 1671 
0:1:43:538, 1902 
0:1:43:554, 2310 
0:1:43:570, 2491 
0:1:43:586, 2852 
0:1:43:601, 3169 
0:1:43:616, 3422 
0:1:43:632, 3523 
0:1:43:647, 3525 
0:1:43:662, 3494 
0:1:43:677, 3388 
0:1:43:692, 3278 
0:1:43:707, 3109 
0:1:43:723, 2939 
0:1:43:739, 2786 
0:1:43:755, 2681 
0:1:43:770, 2579 
0:1:43:785, 2450 
0:1:43:801, 2385 
0:1:43:817, 2331 
0:1:43:833, 2228 
0:1:43:848, 2133 
0:1:43:864, 2088 
0:1:43:880, 2068 
0:1:43:896, 2068 
0:1:43:912, 2088 
0:1:43:927, 2112 
0:1:43:943, 2139 
0:1:43:959, 2154 
0:1:43:975, 2153 
0:1:43:991, 2129 
0:1:44:7, 2098 
0:1:44:22, 2059 
0:1:44:38, 2017 
0:1:44:54, 1952 
0:1:44:70, 1875 
0:1:44:86, 1817 
0:1:44:102, 1763 
0:1:44:118, 1719 
0:1:44:133, 1676 
0:1:44:149, 1644 
0:1:44:163, 1604 
0:1:44:178, 1564 
0:1:44:194, 1528 
0:1:44:209, 1506 
0:1:44:225, 1491 
0:1:44:241, 1482 
0:1:44:256, 1478 
0:1:44:271, 1472 
0:1:44:287, 1467 
0:1:44:303, 1462 
0:1:44:319, 1461 
0:1:44:335, 1457 
0:1:44:351, 1451 
0:1:44:367, 1449 
0:1:44:383, 1447 
0:1:44:398, 1452 
0:1:44:413, 1457 
0:1:44:429, 1460 
0:1:44:445, 1481 
0:1:44:461, 1562 
0:1:44:477, 1740 
0:1:44:493, 2096 
0:1:44:509, 2449 
0:1:44:525, 2884 
0:1:44:541, 3198 
0:1:44:556, 3409 
0:1:44:572, 3455 
0:1:44:588, 3430 
0:1:44:604, 3296 
0:1:44:620, 3141 
0:1:44:635, 2959 
0:1:44:651, 2792 
0:1:44:667, 2638 
0:1:44:682, 2463 
0:1:44:698, 2344 
0:1:44:714, 2238 
0:1:44:730, 2145 
0:1:44:745, 2075 
0:1:44:761, 2053 
0:1:44:777, 2055 
0:1:44:793, 2080 
0:1:44:809, 2121 
0:1:44:824, 2147 
0:1:44:839, 2167 
0:1:44:855, 2184 
0:1:44:870, 2181 
0:1:44:885, 2158 
0:1:44:900, 2120 
0:1:44:915, 2067 
0:1:44:931, 2017 
0:1:44:947, 1933 
0:1:44:962, 1862 
0:1:44:978, 1782 
0:1:44:994, 1729 
0:1:45:10, 1668 
0:1:45:26, 1629 
0:1:45:42, 1596 
0:1:45:58, 1572 
0:1:45:74, 1548 
0:1:45:90, 1530 
0:1:45:105, 1519 
0:1:45:120, 1512 
0:1:45:135, 1503 
0:1:45:151, 1503 
0:1:45:167, 1501 
0:1:45:183, 1502 
0:1:45:198, 1507 
0:1:45:214, 1507 
0:1:45:230, 1507 
0:1:45:245, 1510 
0:1:45:261, 1512 
0:1:45:277, 1508 
0:1:45:292, 1512 
0:1:45:308, 1528 
0:1:45:323, 1595 
0:1:45:338, 1811 
0:1:45:353, 2085 
0:1:45:369, 2417 
0:1:45:385, 2765 
0:1:45:401, 3067 
0:1:45:417, 3354 
0:1:45:433, 3425 
0:1:45:449, 3410 
0:1:45:465, 3321 
0:1:45:480, 3177 
0:1:45:495, 2967 
0:1:45:511, 2795 
0:1:45:527, 2634 
0:1:45:542, 2453 
0:1:45:558, 2294 
0:1:45:573, 2238 
0:1:45:588, 2140 
0:1:45:603, 2064 
0:1:45:619, 2008 
0:1:45:636, 1999 
0:1:45:652, 2013 
0:1:45:667, 2040 
0:1:45:683, 2090 
0:1:45:699, 2130 
0:1:45:714, 2151 
0:1:45:729, 2156 
0:1:45:745, 2135 
0:1:45:760, 2101 
0:1:45:776, 2052 
0:1:45:792, 1977 
0:1:45:807, 1930 
0:1:45:822, 1866 
0:1:45:837, 1798 
0:1:45:852, 1738 
0:1:45:868, 1684 
0:1:45:884, 1651 
0:1:45:900, 1618 
