Time, Data
0:0:0:0, 2096 
0:0:0:17, 2096 
0:0:0:32, 2097 
0:0:0:48, 2097 
0:0:0:64, 2097 
0:0:0:79, 2098 
0:0:0:94, 2100 
0:0:0:110, 2100 
0:0:0:126, 2098 
0:0:0:142, 2094 
0:0:0:158, 2084 
0:0:0:174, 2077 
0:0:0:189, 2068 
0:0:0:204, 2064 
0:0:0:219, 2063 
0:0:0:235, 2062 
0:0:0:251, 2058 
0:0:0:267, 2055 
0:0:0:283, 2052 
0:0:0:299, 2048 
0:0:0:315, 2041 
0:0:0:330, 2037 
0:0:0:346, 2032 
0:0:0:361, 2025 
0:0:0:377, 2021 
0:0:0:393, 2017 
0:0:0:409, 2016 
0:0:0:424, 2010 
0:0:0:439, 2005 
0:0:0:455, 1999 
0:0:0:471, 1992 
0:0:0:487, 1985 
0:0:0:503, 1979 
0:0:0:518, 1973 
0:0:0:534, 1969 
0:0:0:550, 1965 
0:0:0:565, 1962 
0:0:0:580, 1958 
0:0:0:596, 1954 
0:0:0:612, 1953 
0:0:0:627, 1954 
0:0:0:643, 1954 
0:0:0:658, 1953 
0:0:0:673, 1951 
0:0:0:688, 1946 
0:0:0:704, 1598 
0:0:0:720, 1583 
0:0:0:736, 1628 
0:0:0:752, 1718 
0:0:0:767, 1861 
0:0:0:782, 1980 
0:0:0:798, 2078 
0:0:0:814, 2177 
0:0:0:830, 2203 
0:0:0:845, 2201 
0:0:0:860, 2185 
0:0:0:875, 2170 
0:0:0:890, 2165 
0:0:0:905, 2170 
0:0:0:920, 2176 
0:0:0:936, 2177 
0:0:0:952, 2165 
0:0:0:968, 2148 
0:0:0:983, 2129 
0:0:0:999, 2073 
0:0:1:15, 2032 
0:0:1:31, 2002 
0:0:1:46, 1992 
0:0:1:62, 1994 
0:0:1:78, 1991 
0:0:1:94, 1985 
0:0:1:110, 1973 
0:0:1:125, 1937 
0:0:1:140, 1902 
0:0:1:155, 1871 
0:0:1:171, 1842 
0:0:1:187, 1822 
0:0:1:203, 1811 
0:0:1:219, 1793 
0:0:1:234, 1777 
0:0:1:249, 1766 
0:0:1:265, 1758 
0:0:1:281, 1739 
0:0:1:296, 1714 
0:0:1:312, 1683 
0:0:1:328, 1664 
0:0:1:344, 1647 
0:0:1:359, 1629 
0:0:1:374, 1606 
0:0:1:389, 1598 
0:0:1:405, 1591 
0:0:1:420, 1588 
0:0:1:435, 1592 
0:0:1:451, 1591 
0:0:1:467, 1588 
0:0:1:483, 1583 
0:0:1:499, 1567 
0:0:1:515, 1567 
0:0:1:530, 1580 
0:0:1:546, 1634 
0:0:1:562, 1728 
0:0:1:577, 1843 
0:0:1:592, 1949 
0:0:1:607, 2015 
0:0:1:623, 2098 
0:0:1:639, 2125 
0:0:1:655, 2140 
0:0:1:671, 2133 
0:0:1:686, 2114 
0:0:1:702, 2091 
0:0:1:718, 2081 
0:0:1:733, 2072 
0:0:1:749, 2068 
0:0:1:764, 2073 
0:0:1:780, 2063 
0:0:1:796, 2047 
0:0:1:811, 2020 
0:0:1:827, 1997 
0:0:1:842, 1977 
0:0:1:857, 1961 
0:0:1:872, 1946 
0:0:1:888, 1940 
0:0:1:904, 1946 
0:0:1:920, 1946 
0:0:1:935, 1938 
0:0:1:951, 1920 
0:0:1:967, 1904 
0:0:1:982, 1893 
0:0:1:998, 1870 
0:0:2:14, 1853 
0:0:2:29, 1830 
0:0:2:44, 1807 
0:0:2:59, 1784 
0:0:2:74, 1753 
0:0:2:89, 1731 
0:0:2:105, 1730 
0:0:2:120, 1727 
0:0:2:136, 1724 
0:0:2:152, 1709 
0:0:2:167, 1703 
0:0:2:183, 1692 
0:0:2:198, 1681 
0:0:2:213, 1675 
0:0:2:229, 1668 
0:0:2:244, 1664 
0:0:2:260, 1662 
0:0:2:275, 1661 
0:0:2:290, 1652 
0:0:2:305, 1642 
0:0:2:320, 1633 
0:0:2:336, 1624 
0:0:2:352, 1622 
0:0:2:368, 1623 
0:0:2:384, 1622 
0:0:2:399, 1618 
0:0:2:415, 1615 
0:0:2:430, 1601 
0:0:2:446, 1601 
0:0:2:462, 1619 
0:0:2:478, 1665 
0:0:2:494, 1751 
0:0:2:510, 1855 
0:0:2:525, 1934 
0:0:2:540, 2022 
0:0:2:555, 2093 
0:0:2:570, 2132 
0:0:2:586, 2140 
0:0:2:602, 2133 
0:0:2:618, 2109 
0:0:2:634, 2095 
0:0:2:650, 2079 
0:0:2:666, 2074 
0:0:2:682, 2079 
0:0:2:698, 2086 
0:0:2:714, 2091 
0:0:2:730, 2093 
0:0:2:746, 2081 
0:0:2:761, 2064 
0:0:2:776, 2036 
0:0:2:792, 2011 
0:0:2:808, 1997 
0:0:2:823, 1992 
0:0:2:839, 1991 
0:0:2:855, 1984 
0:0:2:871, 1981 
0:0:2:887, 1977 
0:0:2:903, 1968 
0:0:2:918, 1960 
0:0:2:934, 1944 
0:0:2:950, 1921 
0:0:2:966, 1897 
0:0:2:982, 1878 
0:0:2:997, 1872 
0:0:3:12, 1861 
0:0:3:28, 1841 
0:0:3:44, 1814 
0:0:3:60, 1801 
0:0:3:76, 1796 
0:0:3:92, 1792 
0:0:3:108, 1780 
0:0:3:125, 1772 
0:0:3:141, 1770 
0:0:3:157, 1754 
0:0:3:173, 1730 
0:0:3:189, 1723 
0:0:3:204, 1717 
0:0:3:219, 1710 
0:0:3:234, 1693 
0:0:3:249, 1671 
0:0:3:265, 1646 
0:0:3:281, 1613 
0:0:3:297, 1545 
0:0:3:313, 1438 
0:0:3:328, 1370 
0:0:3:344, 1342 
0:0:3:360, 1362 
0:0:3:376, 1408 
0:0:3:392, 1454 
0:0:3:408, 1500 
0:0:3:423, 1514 
0:0:3:439, 1497 
0:0:3:454, 1475 
0:0:3:469, 1460 
0:0:3:484, 1459 
0:0:3:499, 1486 
0:0:3:514, 1523 
0:0:3:530, 1572 
0:0:3:546, 1659 
0:0:3:562, 1728 
0:0:3:578, 1798 
0:0:3:594, 1834 
0:0:3:610, 1877 
0:0:3:625, 1919 
0:0:3:641, 1960 
0:0:3:657, 2001 
0:0:3:672, 2021 
0:0:3:688, 2037 
0:0:3:703, 2059 
0:0:3:718, 2065 
0:0:3:733, 2054 
0:0:3:749, 2044 
0:0:3:765, 2032 
0:0:3:781, 2011 
0:0:3:797, 1998 
0:0:3:813, 1998 
0:0:3:829, 1995 
0:0:3:845, 1980 
0:0:3:860, 1953 
0:0:3:875, 1930 
0:0:3:890, 1917 
0:0:3:906, 1911 
0:0:3:922, 1912 
0:0:3:937, 1917 
0:0:3:952, 1916 
0:0:3:967, 1902 
0:0:3:983, 1892 
0:0:3:999, 1889 
0:0:4:15, 1894 
0:0:4:30, 1889 
0:0:4:45, 1874 
0:0:4:60, 1862 
0:0:4:76, 1844 
0:0:4:92, 1838 
0:0:4:108, 1842 
0:0:4:123, 1843 
0:0:4:138, 1846 
0:0:4:153, 1855 
0:0:4:168, 1890 
0:0:4:184, 1943 
0:0:4:200, 2034 
0:0:4:216, 2151 
0:0:4:231, 2228 
0:0:4:247, 2284 
0:0:4:263, 2306 
0:0:4:279, 2304 
0:0:4:295, 2292 
0:0:4:311, 2280 
0:0:4:327, 2265 
0:0:4:343, 2251 
0:0:4:359, 2249 
0:0:4:375, 2263 
0:0:4:391, 2272 
0:0:4:406, 2257 
0:0:4:421, 2237 
0:0:4:437, 2209 
0:0:4:453, 2170 
0:0:4:469, 2150 
0:0:4:485, 2138 
0:0:4:501, 2137 
0:0:4:516, 2137 
0:0:4:532, 2132 
0:0:4:547, 2129 
0:0:4:562, 2126 
0:0:4:578, 2104 
0:0:4:594, 2078 
0:0:4:610, 2054 
0:0:4:625, 2024 
0:0:4:640, 1997 
0:0:4:655, 1971 
0:0:4:670, 1945 
0:0:4:686, 1916 
0:0:4:702, 1888 
0:0:4:717, 1873 
0:0:4:732, 1865 
0:0:4:748, 1862 
0:0:4:764, 1857 
0:0:4:780, 1839 
0:0:4:796, 1813 
0:0:4:812, 1802 
0:0:4:828, 1788 
0:0:4:844, 1777 
0:0:4:860, 1769 
0:0:4:875, 1761 
0:0:4:890, 1751 
0:0:4:905, 1736 
0:0:4:920, 1727 
0:0:4:936, 1725 
0:0:4:951, 1728 
0:0:4:967, 1754 
0:0:4:982, 1817 
0:0:4:997, 1908 
0:0:5:12, 2013 
0:0:5:28, 2125 
0:0:5:43, 2212 
0:0:5:59, 2267 
0:0:5:75, 2282 
0:0:5:91, 2280 
0:0:5:106, 2271 
0:0:5:122, 2250 
0:0:5:137, 2231 
0:0:5:153, 2233 
0:0:5:169, 2231 
0:0:5:185, 2240 
0:0:5:201, 2237 
0:0:5:217, 2210 
0:0:5:233, 2184 
0:0:5:248, 2151 
0:0:5:263, 2119 
0:0:5:278, 2093 
0:0:5:294, 2068 
0:0:5:310, 2058 
0:0:5:325, 2053 
0:0:5:340, 2061 
0:0:5:355, 2060 
0:0:5:371, 2059 
0:0:5:387, 2056 
0:0:5:403, 2032 
0:0:5:418, 2011 
0:0:5:434, 2004 
0:0:5:450, 1982 
0:0:5:466, 1950 
0:0:5:481, 1917 
0:0:5:496, 1898 
0:0:5:512, 1878 
0:0:5:528, 1867 
0:0:5:544, 1864 
0:0:5:560, 1869 
0:0:5:575, 1871 
0:0:5:590, 1866 
0:0:5:605, 1842 
0:0:5:621, 1808 
0:0:5:637, 1792 
0:0:5:652, 1780 
0:0:5:667, 1772 
0:0:5:683, 1772 
0:0:5:699, 1786 
0:0:5:715, 1801 
0:0:5:730, 1795 
0:0:5:746, 1786 
0:0:5:761, 1780 
0:0:5:777, 1772 
0:0:5:793, 1773 
0:0:5:808, 1807 
0:0:5:824, 1897 
0:0:5:840, 2004 
0:0:5:856, 2145 
0:0:5:872, 2234 
0:0:5:888, 2301 
0:0:5:904, 2320 
0:0:5:920, 2312 
0:0:5:936, 2286 
0:0:5:952, 2274 
0:0:5:967, 2279 
0:0:5:983, 2290 
0:0:5:999, 2309 
0:0:6:15, 2324 
0:0:6:30, 2338 
0:0:6:45, 2332 
0:0:6:60, 2328 
0:0:6:76, 2308 
0:0:6:92, 2283 
0:0:6:108, 2267 
0:0:6:123, 2252 
0:0:6:139, 2237 
0:0:6:155, 2220 
0:0:6:171, 2203 
0:0:6:187, 2189 
0:0:6:203, 2165 
0:0:6:219, 2137 
0:0:6:234, 2105 
0:0:6:250, 2073 
0:0:6:266, 2048 
0:0:6:281, 2021 
0:0:6:296, 2004 
0:0:6:312, 2004 
0:0:6:328, 2009 
0:0:6:344, 2016 
0:0:6:360, 2016 
0:0:6:376, 2010 
0:0:6:392, 2002 
0:0:6:408, 1978 
0:0:6:423, 1964 
0:0:6:439, 1962 
0:0:6:455, 1951 
0:0:6:471, 1943 
0:0:6:487, 1924 
0:0:6:502, 1902 
0:0:6:517, 1877 
0:0:6:532, 1845 
0:0:6:548, 1816 
0:0:6:564, 1806 
0:0:6:580, 1792 
0:0:6:595, 1782 
0:0:6:610, 1762 
0:0:6:623, 1742 
0:0:6:642, 1708 
0:0:6:658, 1705 
0:0:6:674, 1746 
0:0:6:689, 1863 
0:0:6:704, 1996 
0:0:6:720, 2126 
0:0:6:736, 2218 
0:0:6:751, 2294 
0:0:6:766, 2318 
0:0:6:781, 2315 
0:0:6:796, 2302 
0:0:6:811, 2292 
0:0:6:827, 2283 
0:0:6:842, 2283 
0:0:6:857, 2292 
0:0:6:873, 2318 
0:0:6:889, 2333 
0:0:6:905, 2342 
0:0:6:921, 2333 
0:0:6:937, 2312 
0:0:6:953, 2293 
0:0:6:969, 2269 
0:0:6:984, 2244 
0:0:6:999, 2222 
0:0:7:15, 2209 
0:0:7:31, 2192 
0:0:7:47, 2166 
0:0:7:63, 2129 
0:0:7:79, 2087 
0:0:7:95, 2029 
0:0:7:111, 2001 
0:0:7:126, 1978 
0:0:7:142, 1956 
0:0:7:158, 1943 
0:0:7:173, 1939 
0:0:7:189, 1939 
0:0:7:204, 1932 
0:0:7:219, 1925 
0:0:7:234, 1911 
0:0:7:250, 1897 
0:0:7:266, 1880 
0:0:7:282, 1861 
0:0:7:298, 1848 
0:0:7:314, 1838 
0:0:7:329, 1817 
0:0:7:345, 1794 
0:0:7:360, 1776 
0:0:7:376, 1748 
0:0:7:392, 1736 
0:0:7:408, 1729 
0:0:7:424, 1723 
0:0:7:440, 1722 
0:0:7:455, 1726 
0:0:7:470, 1710 
0:0:7:485, 1689 
0:0:7:500, 1668 
0:0:7:515, 1655 
0:0:7:530, 1673 
0:0:7:546, 1715 
0:0:7:562, 1817 
0:0:7:578, 1911 
0:0:7:593, 1989 
0:0:7:608, 2058 
0:0:7:624, 2098 
0:0:7:640, 2116 
0:0:7:656, 2131 
0:0:7:672, 2147 
0:0:7:687, 2156 
0:0:7:702, 2143 
0:0:7:717, 2116 
0:0:7:732, 2094 
0:0:7:747, 2071 
0:0:7:764, 2057 
0:0:7:779, 2047 
0:0:7:795, 2023 
0:0:7:812, 2001 
0:0:7:827, 1978 
0:0:7:843, 1957 
0:0:7:859, 1925 
0:0:7:875, 1907 
0:0:7:891, 1892 
0:0:7:907, 1899 
0:0:7:923, 1905 
0:0:7:938, 1911 
0:0:7:953, 1906 
0:0:7:968, 1888 
0:0:7:984, 1860 
0:0:8:0, 1840 
0:0:8:15, 1822 
0:0:8:31, 1809 
0:0:8:47, 1803 
0:0:8:62, 1796 
0:0:8:77, 1794 
0:0:8:92, 1788 
0:0:8:106, 1778 
0:0:8:122, 1764 
0:0:8:138, 1752 
0:0:8:153, 1733 
0:0:8:168, 1720 
0:0:8:183, 1710 
0:0:8:199, 1706 
0:0:8:215, 1711 
0:0:8:229, 1704 
0:0:8:245, 1693 
0:0:8:261, 1674 
0:0:8:277, 1654 
0:0:8:293, 1635 
0:0:8:309, 1626 
0:0:8:325, 1615 
0:0:8:341, 1605 
0:0:8:357, 1618 
0:0:8:373, 1652 
0:0:8:388, 1720 
0:0:8:403, 1788 
0:0:8:419, 1893 
0:0:8:435, 2021 
0:0:8:451, 2094 
0:0:8:467, 2137 
0:0:8:483, 2175 
0:0:8:499, 2187 
0:0:8:515, 2190 
0:0:8:531, 2183 
0:0:8:547, 2178 
0:0:8:563, 2173 
0:0:8:578, 2175 
0:0:8:594, 2180 
0:0:8:610, 2179 
0:0:8:625, 2172 
0:0:8:640, 2155 
0:0:8:655, 2129 
0:0:8:670, 2114 
0:0:8:685, 2111 
0:0:8:701, 2099 
0:0:8:717, 2081 
0:0:8:732, 2062 
0:0:8:748, 2022 
0:0:8:763, 1873 
0:0:8:779, 1720 
0:0:8:795, 1583 
0:0:8:811, 1475 
0:0:8:827, 1423 
0:0:8:843, 1387 
0:0:8:858, 1363 
0:0:8:873, 1352 
0:0:8:889, 1348 
0:0:8:904, 1351 
0:0:8:920, 1354 
0:0:8:936, 1364 
0:0:8:952, 1376 
0:0:8:968, 1371 
0:0:8:984, 1369 
0:0:9:0, 1365 
0:0:9:16, 1357 
0:0:9:31, 1363 
0:0:9:47, 1358 
0:0:9:63, 1360 
0:0:9:78, 1366 
0:0:9:93, 1373 
0:0:9:108, 1378 
0:0:9:123, 1381 
0:0:9:139, 1390 
0:0:9:155, 1410 
0:0:9:171, 1423 
0:0:9:187, 1434 
0:0:9:203, 1470 
0:0:9:219, 1538 
0:0:9:234, 1634 
0:0:9:249, 1721 
0:0:9:265, 1816 
0:0:9:281, 1894 
0:0:9:297, 1980 
0:0:9:313, 2010 
0:0:9:328, 2045 
0:0:9:343, 2056 
0:0:9:359, 2057 
0:0:9:375, 2050 
0:0:9:391, 2047 
0:0:9:406, 2053 
0:0:9:422, 2059 
0:0:9:438, 2068 
0:0:9:453, 2079 
0:0:9:468, 2090 
0:0:9:484, 2090 
0:0:9:499, 2086 
0:0:9:515, 2076 
0:0:9:531, 2043 
0:0:9:546, 2004 
0:0:9:561, 1964 
0:0:9:576, 1931 
0:0:9:591, 1905 
0:0:9:606, 1886 
0:0:9:622, 1870 
0:0:9:638, 1849 
0:0:9:654, 1839 
0:0:9:670, 1826 
0:0:9:686, 1810 
0:0:9:702, 1794 
0:0:9:718, 1781 
0:0:9:733, 1765 
0:0:9:749, 1755 
0:0:9:765, 1735 
0:0:9:781, 1718 
0:0:9:796, 1698 
0:0:9:811, 1680 
0:0:9:826, 1675 
0:0:9:841, 1667 
0:0:9:857, 1659 
0:0:9:873, 1659 
0:0:9:889, 1662 
0:0:9:904, 1669 
0:0:9:919, 1671 
0:0:9:935, 1663 
0:0:9:951, 1650 
0:0:9:967, 1641 
0:0:9:983, 1638 
0:0:9:999, 1654 
0:0:10:15, 1651 
0:0:10:30, 1647 
0:0:10:45, 1632 
0:0:10:61, 1615 
0:0:10:76, 1605 
0:0:10:91, 1597 
0:0:10:106, 1597 
0:0:10:122, 1605 
0:0:10:138, 1672 
0:0:10:154, 1775 
0:0:10:170, 1894 
0:0:10:186, 2033 
0:0:10:202, 2092 
0:0:10:218, 2164 
0:0:10:233, 2192 
0:0:10:248, 2196 
0:0:10:263, 2196 
0:0:10:278, 2181 
0:0:10:293, 2161 
0:0:10:309, 2158 
0:0:10:325, 2162 
0:0:10:340, 2176 
0:0:10:355, 2185 
0:0:10:371, 2180 
0:0:10:387, 2169 
0:0:10:403, 2146 
0:0:10:418, 2125 
0:0:10:433, 2093 
0:0:10:449, 2055 
0:0:10:465, 2029 
0:0:10:480, 2011 
0:0:10:495, 2007 
0:0:10:510, 2016 
0:0:10:526, 2016 
0:0:10:542, 2007 
0:0:10:558, 1975 
0:0:10:574, 1949 
0:0:10:590, 1927 
0:0:10:606, 1895 
0:0:10:621, 1876 
0:0:10:637, 1859 
0:0:10:653, 1840 
0:0:10:669, 1824 
0:0:10:685, 1807 
0:0:10:701, 1804 
0:0:10:716, 1805 
0:0:10:731, 1799 
0:0:10:746, 1795 
0:0:10:762, 1776 
0:0:10:778, 1758 
0:0:10:794, 1737 
0:0:10:810, 1735 
0:0:10:826, 1729 
0:0:10:841, 1728 
0:0:10:856, 1723 
0:0:10:872, 1716 
0:0:10:888, 1713 
0:0:10:904, 1700 
0:0:10:919, 1691 
0:0:10:935, 1684 
0:0:10:951, 1681 
0:0:10:966, 1680 
0:0:10:981, 1674 
0:0:10:997, 1658 
0:0:11:13, 1652 
0:0:11:28, 1682 
0:0:11:44, 1774 
0:0:11:60, 1893 
0:0:11:76, 2014 
0:0:11:92, 2139 
0:0:11:108, 2213 
0:0:11:124, 2239 
0:0:11:140, 2241 
0:0:11:156, 2232 
0:0:11:172, 2220 
0:0:11:187, 2217 
0:0:11:202, 2221 
0:0:11:217, 2230 
0:0:11:232, 2247 
0:0:11:247, 2261 
0:0:11:263, 2268 
0:0:11:279, 2259 
0:0:11:295, 2244 
0:0:11:311, 2232 
0:0:11:327, 2222 
0:0:11:343, 2208 
0:0:11:359, 2194 
0:0:11:374, 2178 
0:0:11:390, 2140 
0:0:11:406, 2126 
0:0:11:422, 2113 
0:0:11:437, 2096 
0:0:11:452, 2078 
0:0:11:468, 2053 
0:0:11:484, 2014 
0:0:11:500, 1982 
0:0:11:516, 1939 
0:0:11:531, 1918 
0:0:11:547, 1889 
0:0:11:563, 1854 
0:0:11:579, 1819 
0:0:11:594, 1780 
0:0:11:610, 1759 
0:0:11:626, 1748 
0:0:11:642, 1730 
0:0:11:658, 1727 
0:0:11:673, 1724 
0:0:11:688, 1722 
0:0:11:704, 1730 
0:0:11:720, 1725 
0:0:11:735, 1716 
0:0:11:750, 1715 
0:0:11:765, 1721 
0:0:11:781, 1727 
0:0:11:796, 1739 
0:0:11:811, 1747 
0:0:11:827, 1741 
0:0:11:843, 1733 
0:0:11:859, 1716 
0:0:11:875, 1710 
0:0:11:891, 1734 
0:0:11:906, 1795 
0:0:11:921, 1890 
0:0:11:936, 2002 
0:0:11:952, 2079 
0:0:11:968, 2165 
0:0:11:983, 2243 
0:0:11:998, 2270 
0:0:12:14, 2264 
0:0:12:30, 2258 
0:0:12:46, 2242 
0:0:12:62, 2237 
0:0:12:78, 2235 
0:0:12:94, 2238 
0:0:12:110, 2242 
0:0:12:125, 2242 
0:0:12:140, 2248 
0:0:12:155, 2249 
0:0:12:171, 2242 
0:0:12:186, 2247 
0:0:12:201, 2241 
0:0:12:216, 2235 
0:0:12:231, 2225 
0:0:12:247, 2213 
0:0:12:263, 2206 
0:0:12:279, 2202 
0:0:12:295, 2192 
0:0:12:311, 2180 
0:0:12:327, 2156 
0:0:12:343, 2131 
0:0:12:358, 2115 
0:0:12:373, 2077 
0:0:12:388, 2031 
0:0:12:403, 1991 
0:0:12:418, 1961 
0:0:12:433, 1943 
0:0:12:449, 1917 
0:0:12:465, 1888 
0:0:12:481, 1861 
0:0:12:497, 1848 
0:0:12:513, 1830 
0:0:12:529, 1810 
0:0:12:545, 1764 
0:0:12:560, 1731 
0:0:12:576, 1702 
0:0:12:592, 1684 
0:0:12:607, 1687 
0:0:12:622, 1691 
0:0:12:637, 1695 
0:0:12:653, 1700 
0:0:12:669, 1686 
0:0:12:685, 1677 
0:0:12:701, 1665 
0:0:12:717, 1671 
0:0:12:733, 1711 
0:0:12:749, 1808 
0:0:12:765, 1897 
0:0:12:781, 2019 
0:0:12:797, 2124 
0:0:12:813, 2248 
0:0:12:828, 2300 
0:0:12:843, 2325 
0:0:12:858, 2316 
0:0:12:874, 2304 
0:0:12:889, 2300 
0:0:12:905, 2297 
0:0:12:921, 2293 
0:0:12:936, 2289 
0:0:12:951, 2278 
0:0:12:966, 2269 
0:0:12:981, 2252 
0:0:12:997, 2226 
0:0:13:13, 2186 
0:0:13:29, 2144 
0:0:13:45, 2111 
0:0:13:60, 2093 
0:0:13:75, 2088 
0:0:13:90, 2084 
0:0:13:106, 2081 
0:0:13:122, 2076 
0:0:13:138, 2066 
0:0:13:154, 2054 
0:0:13:170, 2041 
0:0:13:186, 2018 
0:0:13:201, 1998 
0:0:13:216, 1984 
0:0:13:231, 1962 
0:0:13:246, 1942 
0:0:13:262, 1923 
0:0:13:278, 1898 
0:0:13:294, 1882 
0:0:13:309, 1863 
0:0:13:325, 1847 
0:0:13:341, 1840 
0:0:13:357, 1826 
0:0:13:373, 1814 
0:0:13:388, 1803 
0:0:13:403, 1792 
0:0:13:418, 1784 
0:0:13:433, 1773 
0:0:13:449, 1754 
0:0:13:465, 1738 
0:0:13:481, 1714 
0:0:13:497, 1695 
0:0:13:513, 1671 
0:0:13:529, 1668 
0:0:13:544, 1675 
0:0:13:559, 1677 
0:0:13:575, 1677 
0:0:13:591, 1680 
0:0:13:607, 1720 
0:0:13:622, 1787 
0:0:13:637, 1884 
0:0:13:653, 2004 
0:0:13:669, 2114 
0:0:13:685, 2225 
0:0:13:701, 2273 
0:0:13:717, 2298 
0:0:13:733, 2320 
0:0:13:749, 2334 
0:0:13:764, 2346 
0:0:13:779, 2374 
0:0:13:794, 2399 
0:0:13:810, 2413 
0:0:13:825, 2409 
0:0:13:841, 2392 
0:0:13:857, 2369 
0:0:13:873, 2336 
0:0:13:889, 2313 
0:0:13:905, 2274 
0:0:13:921, 2233 
0:0:13:937, 2202 
0:0:13:953, 2167 
0:0:13:969, 2145 
0:0:13:985, 2134 
0:0:14:0, 2130 
0:0:14:15, 2128 
0:0:14:30, 2125 
0:0:14:46, 2103 
0:0:14:62, 2077 
0:0:14:78, 2040 
0:0:14:94, 2000 
0:0:14:110, 1977 
0:0:14:125, 1951 
0:0:14:141, 1917 
0:0:14:157, 1883 
0:0:14:173, 1856 
0:0:14:189, 1843 
0:0:14:205, 1831 
0:0:14:221, 1819 
0:0:14:236, 1811 
0:0:14:251, 1802 
0:0:14:266, 1774 
0:0:14:281, 1753 
0:0:14:297, 1734 
0:0:14:312, 1717 
0:0:14:328, 1704 
0:0:14:343, 1705 
0:0:14:359, 1717 
0:0:14:375, 1724 
0:0:14:390, 1728 
0:0:14:405, 1721 
0:0:14:421, 1713 
0:0:14:436, 1701 
0:0:14:452, 1689 
0:0:14:468, 1701 
0:0:14:483, 1748 
0:0:14:498, 1807 
0:0:14:514, 1916 
0:0:14:529, 2002 
0:0:14:545, 2101 
0:0:14:560, 2209 
0:0:14:576, 2255 
0:0:14:591, 2275 
0:0:14:606, 2276 
0:0:14:622, 2269 
0:0:14:638, 2262 
0:0:14:653, 2246 
0:0:14:669, 2231 
0:0:14:685, 2217 
0:0:14:700, 2224 
0:0:14:715, 2228 
0:0:14:730, 2217 
0:0:14:746, 2192 
0:0:14:762, 2169 
0:0:14:778, 2134 
0:0:14:794, 2110 
0:0:14:809, 2087 
0:0:14:825, 2076 
0:0:14:841, 2065 
0:0:14:856, 2059 
0:0:14:872, 2060 
0:0:14:888, 2078 
0:0:14:903, 2091 
0:0:14:919, 2081 
0:0:14:935, 2062 
0:0:14:950, 2032 
0:0:14:965, 2008 
0:0:14:981, 1982 
0:0:14:997, 1956 
0:0:15:13, 1946 
0:0:15:28, 1947 
0:0:15:44, 1937 
0:0:15:59, 1931 
0:0:15:74, 1920 
0:0:15:90, 1904 
0:0:15:106, 1885 
0:0:15:121, 1847 
0:0:15:137, 1815 
0:0:15:153, 1794 
0:0:15:169, 1779 
0:0:15:184, 1765 
0:0:15:199, 1741 
0:0:15:214, 1721 
0:0:15:229, 1703 
0:0:15:245, 1698 
0:0:15:261, 1689 
0:0:15:277, 1690 
0:0:15:292, 1705 
0:0:15:308, 1733 
0:0:15:324, 1782 
0:0:15:339, 1850 
0:0:15:355, 1950 
0:0:15:371, 2024 
0:0:15:386, 2113 
0:0:15:402, 2182 
0:0:15:417, 2213 
0:0:15:432, 2233 
0:0:15:448, 2235 
0:0:15:464, 2228 
0:0:15:480, 2215 
0:0:15:496, 2205 
0:0:15:512, 2204 
0:0:15:528, 2222 
0:0:15:544, 2238 
0:0:15:560, 2239 
0:0:15:575, 2222 
0:0:15:591, 2192 
0:0:15:607, 2165 
0:0:15:623, 2143 
0:0:15:638, 2128 
0:0:15:653, 2110 
0:0:15:668, 2098 
0:0:15:684, 2078 
0:0:15:699, 2066 
0:0:15:715, 2071 
0:0:15:730, 2074 
0:0:15:746, 2059 
0:0:15:761, 2031 
0:0:15:777, 1995 
0:0:15:793, 1959 
0:0:15:809, 1919 
0:0:15:826, 1881 
0:0:15:842, 1843 
0:0:15:858, 1818 
0:0:15:874, 1789 
0:0:15:889, 1767 
0:0:15:904, 1739 
0:0:15:919, 1720 
0:0:15:935, 1711 
0:0:15:951, 1702 
0:0:15:967, 1692 
0:0:15:983, 1691 
0:0:15:999, 1691 
0:0:16:15, 1687 
0:0:16:30, 1684 
0:0:16:46, 1670 
0:0:16:62, 1657 
0:0:16:78, 1637 
0:0:16:94, 1619 
0:0:16:110, 1622 
0:0:16:126, 1633 
0:0:16:141, 1657 
0:0:16:157, 1738 
0:0:16:173, 1831 
0:0:16:189, 1887 
0:0:16:204, 2000 
0:0:16:219, 2093 
0:0:16:234, 2152 
0:0:16:250, 2192 
0:0:16:266, 2228 
0:0:16:282, 2242 
0:0:16:298, 2234 
0:0:16:313, 2232 
0:0:16:328, 2240 
0:0:16:344, 2251 
0:0:16:359, 2263 
0:0:16:374, 2280 
0:0:16:390, 2292 
0:0:16:406, 2283 
0:0:16:422, 2269 
0:0:16:437, 2258 
0:0:16:453, 2229 
0:0:16:469, 2192 
0:0:16:485, 2159 
0:0:16:501, 2132 
0:0:16:516, 2120 
0:0:16:532, 2107 
0:0:16:548, 2079 
0:0:16:564, 2061 
0:0:16:580, 2025 
0:0:16:595, 1990 
0:0:16:610, 1953 
0:0:16:625, 1927 
0:0:16:640, 1911 
0:0:16:656, 1872 
0:0:16:672, 1852 
0:0:16:687, 1841 
0:0:16:702, 1823 
0:0:16:718, 1814 
0:0:16:733, 1816 
0:0:16:749, 1815 
0:0:16:765, 1818 
0:0:16:781, 1814 
0:0:16:797, 1799 
0:0:16:813, 1790 
0:0:16:828, 1780 
0:0:16:844, 1767 
0:0:16:860, 1743 
0:0:16:875, 1722 
0:0:16:890, 1705 
0:0:16:906, 1696 
0:0:16:921, 1680 
0:0:16:936, 1669 
0:0:16:951, 1655 
0:0:16:966, 1641 
0:0:16:981, 1632 
0:0:16:997, 1623 
0:0:17:13, 1632 
0:0:17:28, 1682 
0:0:17:43, 1770 
0:0:17:58, 1873 
0:0:17:73, 1973 
0:0:17:89, 2056 
0:0:17:104, 2139 
0:0:17:120, 2198 
0:0:17:135, 2206 
0:0:17:151, 2203 
0:0:17:167, 2191 
0:0:17:183, 2191 
0:0:17:199, 2198 
0:0:17:215, 2203 
0:0:17:230, 2202 
0:0:17:246, 2201 
0:0:17:262, 2191 
0:0:17:277, 2155 
0:0:17:292, 2124 
0:0:17:307, 2090 
0:0:17:322, 2055 
0:0:17:337, 2026 
0:0:17:353, 2001 
0:0:17:369, 1987 
0:0:17:385, 1973 
0:0:17:401, 1963 
0:0:17:417, 1944 
0:0:17:433, 1930 
0:0:17:449, 1928 
0:0:17:465, 1933 
0:0:17:481, 1937 
0:0:17:497, 1920 
0:0:17:513, 1896 
0:0:17:528, 1859 
0:0:17:543, 1816 
0:0:17:558, 1797 
0:0:17:574, 1788 
0:0:17:589, 1775 
0:0:17:605, 1762 
0:0:17:621, 1745 
0:0:17:637, 1735 
0:0:17:652, 1726 
0:0:17:668, 1722 
0:0:17:684, 1711 
0:0:17:700, 1713 
0:0:17:716, 1718 
0:0:17:732, 1729 
0:0:17:747, 1750 
0:0:17:763, 1760 
0:0:17:778, 1766 
0:0:17:793, 1764 
0:0:17:808, 1762 
0:0:17:824, 1769 
0:0:17:839, 1774 
0:0:17:855, 1764 
0:0:17:871, 1753 
0:0:17:887, 1735 
0:0:17:903, 1728 
0:0:17:919, 1730 
0:0:17:935, 1762 
0:0:17:951, 1818 
0:0:17:967, 1897 
0:0:17:983, 2003 
0:0:17:999, 2085 
0:0:18:14, 2179 
0:0:18:29, 2249 
0:0:18:45, 2270 
0:0:18:61, 2259 
0:0:18:76, 2247 
0:0:18:92, 2228 
0:0:18:108, 2203 
0:0:18:124, 2189 
0:0:18:140, 2185 
0:0:18:156, 2188 
0:0:18:172, 2198 
0:0:18:187, 2197 
0:0:18:202, 2192 
0:0:18:218, 2169 
0:0:18:234, 2141 
0:0:18:249, 2123 
0:0:18:264, 2112 
0:0:18:279, 2090 
0:0:18:295, 2078 
0:0:18:311, 2055 
0:0:18:326, 2036 
0:0:18:341, 2024 
0:0:18:357, 2017 
0:0:18:373, 2007 
0:0:18:389, 1987 
0:0:18:405, 1963 
0:0:18:421, 1942 
0:0:18:437, 1926 
0:0:18:452, 1918 
0:0:18:468, 1908 
0:0:18:483, 1890 
0:0:18:498, 1874 
0:0:18:513, 1855 
0:0:18:528, 1842 
0:0:18:544, 1824 
0:0:18:560, 1812 
0:0:18:576, 1807 
0:0:18:592, 1796 
0:0:18:608, 1787 
0:0:18:624, 1782 
0:0:18:640, 1774 
0:0:18:656, 1773 
0:0:18:672, 1760 
0:0:18:687, 1758 
0:0:18:703, 1765 
0:0:18:718, 1763 
0:0:18:734, 1757 
0:0:18:750, 1749 
0:0:18:766, 1734 
0:0:18:782, 1733 
0:0:18:797, 1723 
0:0:18:813, 1708 
0:0:18:828, 1709 
0:0:18:844, 1737 
0:0:18:860, 1788 
0:0:18:876, 1869 
0:0:18:892, 1942 
0:0:18:908, 2049 
0:0:18:924, 2156 
0:0:18:939, 2237 
0:0:18:954, 2275 
0:0:18:969, 2309 
0:0:18:984, 2315 
0:0:18:999, 2304 
0:0:19:14, 2287 
0:0:19:29, 2273 
0:0:19:45, 2246 
0:0:19:61, 2239 
0:0:19:77, 2223 
0:0:19:92, 2204 
0:0:19:107, 2182 
0:0:19:123, 2154 
0:0:19:139, 2124 
0:0:19:154, 2100 
0:0:19:170, 2081 
0:0:19:185, 2075 
0:0:19:200, 2069 
0:0:19:216, 2058 
0:0:19:232, 2045 
0:0:19:248, 2031 
0:0:19:263, 2014 
0:0:19:279, 2000 
0:0:19:295, 1981 
0:0:19:311, 1973 
0:0:19:327, 1964 
0:0:19:342, 1954 
0:0:19:358, 1934 
0:0:19:374, 1908 
0:0:19:390, 1888 
0:0:19:406, 1867 
0:0:19:421, 1852 
0:0:19:437, 1836 
0:0:19:453, 1821 
0:0:19:469, 1813 
0:0:19:485, 1798 
0:0:19:500, 1782 
0:0:19:516, 1772 
0:0:19:532, 1760 
0:0:19:548, 1753 
0:0:19:564, 1744 
0:0:19:580, 1725 
0:0:19:596, 1716 
0:0:19:612, 1706 
0:0:19:628, 1707 
0:0:19:644, 1705 
0:0:19:659, 1701 
0:0:19:674, 1688 
0:0:19:690, 1685 
0:0:19:706, 1709 
0:0:19:721, 1746 
0:0:19:737, 1827 
0:0:19:753, 1925 
0:0:19:769, 2054 
0:0:19:785, 2134 
0:0:19:801, 2182 
0:0:19:817, 2220 
0:0:19:833, 2225 
0:0:19:849, 2225 
0:0:19:865, 2227 
0:0:19:881, 2227 
0:0:19:896, 2236 
0:0:19:911, 2263 
0:0:19:927, 2283 
0:0:19:942, 2306 
0:0:19:958, 2307 
0:0:19:974, 2297 
0:0:19:990, 2276 
0:0:20:6, 2254 
0:0:20:22, 2242 
0:0:20:38, 2217 
0:0:20:54, 2195 
0:0:20:70, 2181 
0:0:20:86, 2165 
0:0:20:102, 2156 
0:0:20:118, 2138 
0:0:20:133, 2115 
0:0:20:148, 2097 
0:0:20:164, 2072 
0:0:20:180, 2059 
0:0:20:196, 2041 
0:0:20:212, 2017 
0:0:20:228, 1988 
0:0:20:243, 1949 
0:0:20:258, 1917 
0:0:20:273, 1894 
0:0:20:289, 1866 
0:0:20:304, 1852 
0:0:20:319, 1831 
0:0:20:335, 1820 
0:0:20:350, 1801 
0:0:20:365, 1783 
0:0:20:380, 1768 
0:0:20:396, 1760 
0:0:20:412, 1759 
0:0:20:428, 1759 
0:0:20:444, 1761 
0:0:20:460, 1763 
0:0:20:475, 1762 
0:0:20:491, 1743 
0:0:20:507, 1724 
0:0:20:523, 1704 
0:0:20:539, 1694 
0:0:20:555, 1694 
0:0:20:571, 1732 
0:0:20:587, 1805 
0:0:20:602, 1912 
0:0:20:617, 2050 
0:0:20:633, 2198 
0:0:20:649, 2283 
0:0:20:664, 2316 
0:0:20:680, 2317 
0:0:20:696, 2319 
0:0:20:712, 2316 
0:0:20:728, 2314 
0:0:20:743, 2313 
0:0:20:759, 2315 
0:0:20:775, 2333 
0:0:20:791, 2357 
0:0:20:807, 2362 
0:0:20:823, 2348 
0:0:20:838, 2334 
0:0:20:853, 2305 
0:0:20:868, 2263 
0:0:20:884, 2231 
0:0:20:900, 2200 
0:0:20:916, 2173 
0:0:20:931, 2147 
0:0:20:947, 2121 
0:0:20:963, 2106 
0:0:20:979, 2084 
0:0:20:994, 2064 
0:0:21:10, 2056 
0:0:21:26, 2034 
0:0:21:42, 2021 
0:0:21:58, 2005 
0:0:21:73, 1981 
0:0:21:88, 1964 
0:0:21:104, 1944 
0:0:21:120, 1930 
0:0:21:136, 1920 
0:0:21:152, 1905 
0:0:21:168, 1893 
0:0:21:184, 1871 
0:0:21:200, 1832 
0:0:21:216, 1807 
0:0:21:231, 1780 
0:0:21:247, 1766 
0:0:21:263, 1757 
0:0:21:279, 1738 
0:0:21:295, 1731 
0:0:21:310, 1721 
0:0:21:325, 1709 
0:0:21:341, 1696 
0:0:21:357, 1691 
0:0:21:373, 1679 
0:0:21:389, 1665 
0:0:21:404, 1657 
0:0:21:419, 1650 
0:0:21:435, 1649 
0:0:21:451, 1657 
0:0:21:467, 1681 
0:0:21:482, 1705 
0:0:21:498, 1785 
0:0:21:514, 1916 
0:0:21:530, 2031 
0:0:21:545, 2126 
0:0:21:560, 2208 
0:0:21:576, 2258 
0:0:21:592, 2294 
0:0:21:608, 2326 
0:0:21:623, 2340 
0:0:21:638, 2362 
0:0:21:653, 2390 
0:0:21:669, 2413 
0:0:21:685, 2428 
0:0:21:701, 2439 
0:0:21:717, 2435 
0:0:21:733, 2410 
0:0:21:749, 2360 
0:0:21:765, 2324 
0:0:21:780, 2291 
0:0:21:795, 2267 
0:0:21:810, 2248 
0:0:21:825, 2245 
0:0:21:840, 2240 
0:0:21:856, 2235 
0:0:21:872, 2222 
0:0:21:887, 2202 
0:0:21:903, 2159 
0:0:21:919, 2134 
0:0:21:935, 2087 
0:0:21:950, 2053 
0:0:21:965, 2027 
0:0:21:981, 2001 
0:0:21:997, 1966 
0:0:22:12, 1938 
0:0:22:27, 1915 
0:0:22:42, 1892 
0:0:22:58, 1863 
0:0:22:74, 1846 
0:0:22:89, 1828 
0:0:22:104, 1809 
0:0:22:119, 1796 
0:0:22:135, 1779 
0:0:22:150, 1760 
0:0:22:165, 1747 
0:0:22:180, 1735 
0:0:22:195, 1731 
0:0:22:210, 1726 
0:0:22:226, 1729 
0:0:22:241, 1723 
0:0:22:256, 1704 
0:0:22:271, 1692 
0:0:22:286, 1677 
0:0:22:302, 1655 
0:0:22:318, 1644 
0:0:22:334, 1631 
0:0:22:350, 1620 
0:0:22:366, 1630 
0:0:22:382, 1665 
0:0:22:398, 1732 
0:0:22:414, 1834 
0:0:22:430, 1922 
0:0:22:446, 2031 
0:0:22:462, 2129 
0:0:22:478, 2220 
0:0:22:493, 2278 
0:0:22:508, 2317 
0:0:22:524, 2355 
0:0:22:539, 2374 
0:0:22:555, 2385 
0:0:22:570, 2384 
0:0:22:586, 2392 
0:0:22:601, 2402 
0:0:22:617, 2414 
0:0:22:632, 2413 
0:0:22:648, 2384 
0:0:22:664, 2339 
0:0:22:680, 2296 
0:0:22:696, 2256 
0:0:22:711, 2227 
0:0:22:726, 2201 
0:0:22:742, 2173 
0:0:22:758, 2156 
0:0:22:774, 2138 
0:0:22:790, 2103 
0:0:22:805, 2083 
0:0:22:821, 2048 
0:0:22:836, 2026 
0:0:22:852, 2003 
0:0:22:868, 1989 
0:0:22:884, 1973 
0:0:22:900, 1954 
0:0:22:916, 1934 
0:0:22:932, 1908 
0:0:22:948, 1882 
0:0:22:963, 1855 
0:0:22:978, 1836 
0:0:22:994, 1825 
0:0:23:10, 1815 
0:0:23:26, 1805 
0:0:23:42, 1792 
0:0:23:57, 1781 
0:0:23:73, 1778 
0:0:23:89, 1766 
0:0:23:104, 1744 
0:0:23:120, 1727 
0:0:23:136, 1701 
0:0:23:151, 1688 
0:0:23:166, 1679 
0:0:23:182, 1659 
0:0:23:197, 1645 
0:0:23:212, 1638 
0:0:23:227, 1629 
0:0:23:243, 1626 
0:0:23:259, 1625 
0:0:23:275, 1616 
0:0:23:290, 1619 
0:0:23:305, 1648 
0:0:23:321, 1684 
0:0:23:336, 1759 
0:0:23:352, 1830 
0:0:23:368, 1906 
0:0:23:384, 1997 
0:0:23:400, 2089 
0:0:23:415, 2134 
0:0:23:430, 2163 
0:0:23:445, 2194 
0:0:23:461, 2193 
0:0:23:477, 2190 
0:0:23:493, 2189 
0:0:23:509, 2191 
0:0:23:525, 2201 
0:0:23:541, 2214 
0:0:23:557, 2228 
0:0:23:573, 2246 
0:0:23:589, 2242 
0:0:23:605, 2227 
0:0:23:621, 2217 
0:0:23:636, 2200 
0:0:23:652, 2163 
0:0:23:667, 2137 
0:0:23:682, 2114 
0:0:23:697, 2096 
0:0:23:713, 2093 
0:0:23:729, 2093 
0:0:23:745, 2087 
0:0:23:761, 2090 
0:0:23:776, 2086 
0:0:23:792, 2083 
0:0:23:808, 2060 
0:0:23:824, 2033 
0:0:23:840, 1997 
0:0:23:856, 1969 
0:0:23:872, 1940 
0:0:23:887, 1921 
0:0:23:902, 1912 
0:0:23:917, 1901 
0:0:23:932, 1888 
0:0:23:948, 1874 
0:0:23:964, 1862 
0:0:23:980, 1850 
0:0:23:996, 1842 
0:0:24:12, 1830 
0:0:24:27, 1820 
0:0:24:42, 1821 
0:0:24:58, 1816 
0:0:24:74, 1808 
0:0:24:89, 1798 
0:0:24:105, 1778 
0:0:24:120, 1765 
0:0:24:136, 1751 
0:0:24:151, 1735 
0:0:24:166, 1759 
0:0:24:182, 1798 
0:0:24:198, 1912 
0:0:24:214, 2022 
0:0:24:230, 2099 
0:0:24:245, 2166 
0:0:24:261, 2238 
0:0:24:276, 2271 
0:0:24:292, 2290 
0:0:24:308, 2302 
0:0:24:324, 2307 
0:0:24:340, 2306 
0:0:24:356, 2300 
0:0:24:371, 2286 
0:0:24:386, 2284 
0:0:24:401, 2295 
0:0:24:417, 2304 
0:0:24:432, 2306 
0:0:24:448, 2288 
0:0:24:463, 2256 
0:0:24:478, 2222 
0:0:24:494, 2193 
0:0:24:510, 2161 
0:0:24:526, 2127 
0:0:24:542, 2107 
0:0:24:558, 2090 
0:0:24:574, 2077 
0:0:24:590, 2063 
0:0:24:605, 2051 
0:0:24:620, 2027 
0:0:24:635, 2007 
0:0:24:651, 1978 
0:0:24:667, 1964 
0:0:24:683, 1956 
0:0:24:698, 1946 
0:0:24:713, 1919 
0:0:24:728, 1893 
0:0:24:744, 1872 
0:0:24:760, 1850 
0:0:24:775, 1826 
0:0:24:791, 1800 
0:0:24:807, 1775 
0:0:24:823, 1760 
0:0:24:838, 1760 
0:0:24:853, 1755 
0:0:24:868, 1747 
0:0:24:884, 1736 
0:0:24:900, 1713 
0:0:24:916, 1688 
0:0:24:932, 1678 
0:0:24:948, 1663 
0:0:24:963, 1646 
0:0:24:978, 1636 
0:0:24:994, 1625 
0:0:25:10, 1618 
0:0:25:26, 1604 
0:0:25:41, 1591 
0:0:25:57, 1597 
0:0:25:72, 1628 
0:0:25:87, 1699 
0:0:25:102, 1801 
0:0:25:118, 1960 
0:0:25:134, 2053 
0:0:25:150, 2156 
0:0:25:166, 2242 
0:0:25:182, 2294 
0:0:25:198, 2302 
0:0:25:213, 2299 
0:0:25:229, 2288 
0:0:25:245, 2287 
0:0:25:261, 2283 
0:0:25:276, 2279 
0:0:25:291, 2280 
0:0:25:306, 2287 
0:0:25:321, 2290 
0:0:25:336, 2282 
0:0:25:352, 2271 
0:0:25:368, 2257 
0:0:25:384, 2233 
0:0:25:400, 2202 
0:0:25:416, 2177 
0:0:25:432, 2153 
0:0:25:448, 2140 
0:0:25:464, 2129 
0:0:25:480, 2114 
0:0:25:496, 2089 
0:0:25:512, 2067 
0:0:25:528, 2034 
0:0:25:544, 2016 
0:0:25:559, 2002 
0:0:25:575, 1978 
0:0:25:591, 1957 
0:0:25:607, 1930 
0:0:25:623, 1905 
0:0:25:638, 1883 
0:0:25:654, 1858 
0:0:25:670, 1843 
0:0:25:685, 1823 
0:0:25:701, 1796 
0:0:25:717, 1776 
0:0:25:732, 1769 
0:0:25:748, 1768 
0:0:25:764, 1774 
0:0:25:779, 1774 
0:0:25:794, 1760 
0:0:25:809, 1747 
0:0:25:824, 1730 
0:0:25:840, 1723 
0:0:25:855, 1718 
0:0:25:871, 1709 
0:0:25:887, 1703 
0:0:25:903, 1704 
0:0:25:919, 1697 
0:0:25:934, 1685 
0:0:25:950, 1669 
0:0:25:966, 1665 
0:0:25:982, 1711 
0:0:25:998, 1790 
0:0:26:13, 1902 
0:0:26:28, 2037 
0:0:26:44, 2171 
0:0:26:60, 2256 
0:0:26:75, 2291 
0:0:26:90, 2311 
0:0:26:105, 2306 
0:0:26:121, 2286 
0:0:26:137, 2266 
0:0:26:153, 2257 
0:0:26:169, 2260 
0:0:26:185, 2270 
0:0:26:201, 2276 
0:0:26:216, 2261 
0:0:26:232, 2232 
0:0:26:247, 2207 
0:0:26:262, 2172 
0:0:26:278, 2136 
0:0:26:294, 2092 
0:0:26:310, 2058 
0:0:26:325, 2048 
0:0:26:340, 2034 
0:0:26:356, 2029 
0:0:26:372, 2014 
0:0:26:388, 1999 
0:0:26:404, 1972 
0:0:26:420, 1950 
0:0:26:436, 1926 
0:0:26:452, 1893 
0:0:26:468, 1871 
0:0:26:483, 1857 
0:0:26:498, 1837 
0:0:26:514, 1818 
0:0:26:530, 1810 
0:0:26:546, 1794 
0:0:26:562, 1788 
0:0:26:578, 1780 
0:0:26:594, 1763 
0:0:26:610, 1748 
0:0:26:626, 1719 
0:0:26:641, 1704 
0:0:26:657, 1692 
0:0:26:673, 1682 
0:0:26:688, 1670 
0:0:26:704, 1655 
0:0:26:719, 1638 
0:0:26:735, 1621 
0:0:26:751, 1619 
0:0:26:767, 1618 
0:0:26:783, 1622 
0:0:26:799, 1642 
0:0:26:815, 1689 
0:0:26:831, 1757 
0:0:26:846, 1834 
0:0:26:861, 1913 
0:0:26:876, 1951 
0:0:26:891, 1998 
0:0:26:906, 2041 
0:0:26:921, 2065 
0:0:26:936, 2069 
0:0:26:951, 2072 
0:0:26:966, 2078 
0:0:26:981, 2087 
0:0:26:997, 2090 
0:0:27:13, 2104 
0:0:27:28, 2116 
0:0:27:44, 2135 
0:0:27:59, 2140 
0:0:27:74, 2122 
0:0:27:89, 2098 
0:0:27:104, 2070 
0:0:27:120, 2031 
0:0:27:136, 2006 
0:0:27:152, 1977 
0:0:27:167, 1950 
0:0:27:183, 1936 
0:0:27:198, 1914 
0:0:27:213, 1891 
0:0:27:228, 1873 
0:0:27:244, 1862 
0:0:27:260, 1854 
0:0:27:276, 1851 
0:0:27:292, 1844 
0:0:27:308, 1832 
0:0:27:324, 1810 
0:0:27:339, 1785 
0:0:27:354, 1760 
0:0:27:370, 1748 
0:0:27:386, 1737 
0:0:27:402, 1729 
0:0:27:417, 1723 
0:0:27:433, 1713 
0:0:27:449, 1701 
0:0:27:465, 1709 
0:0:27:481, 1713 
0:0:27:496, 1706 
0:0:27:511, 1703 
0:0:27:527, 1704 
0:0:27:543, 1697 
0:0:27:559, 1693 
0:0:27:575, 1697 
0:0:27:591, 1696 
0:0:27:607, 1700 
0:0:27:623, 1703 
0:0:27:638, 1704 
0:0:27:653, 1698 
0:0:27:668, 1684 
0:0:27:684, 1686 
0:0:27:700, 1718 
0:0:27:716, 1742 
0:0:27:732, 1808 
0:0:27:747, 1924 
0:0:27:763, 2003 
0:0:27:779, 2112 
0:0:27:795, 2195 
0:0:27:811, 2233 
0:0:27:827, 2246 
0:0:27:843, 2249 
0:0:27:859, 2233 
0:0:27:875, 2221 
0:0:27:890, 2224 
0:0:27:905, 2226 
0:0:27:921, 2235 
0:0:27:936, 2246 
0:0:27:952, 2250 
0:0:27:968, 2241 
0:0:27:984, 2209 
0:0:28:0, 2175 
0:0:28:16, 2130 
0:0:28:31, 2106 
0:0:28:46, 2091 
0:0:28:62, 2076 
0:0:28:78, 2079 
0:0:28:94, 2078 
0:0:28:110, 2067 
0:0:28:125, 2055 
0:0:28:140, 2033 
0:0:28:156, 2004 
0:0:28:172, 1989 
0:0:28:188, 1970 
0:0:28:204, 1948 
0:0:28:219, 1936 
0:0:28:235, 1917 
0:0:28:251, 1901 
0:0:28:267, 1883 
0:0:28:282, 1871 
0:0:28:298, 1862 
0:0:28:314, 1857 
0:0:28:330, 1854 
0:0:28:345, 1844 
0:0:28:360, 1820 
0:0:28:375, 1788 
0:0:28:390, 1765 
0:0:28:405, 1759 
0:0:28:420, 1758 
0:0:28:436, 1759 
0:0:28:452, 1747 
0:0:28:468, 1745 
0:0:28:483, 1742 
0:0:28:499, 1730 
0:0:28:515, 1713 
0:0:28:530, 1698 
0:0:28:546, 1670 
0:0:28:561, 1659 
0:0:28:576, 1651 
0:0:28:591, 1637 
0:0:28:606, 1651 
0:0:28:622, 1724 
0:0:28:637, 1817 
0:0:28:653, 1922 
0:0:28:669, 2028 
0:0:28:685, 2120 
0:0:28:701, 2173 
0:0:28:716, 2195 
0:0:28:732, 2215 
0:0:28:748, 2216 
0:0:28:764, 2197 
0:0:28:780, 2184 
0:0:28:796, 2175 
0:0:28:811, 2186 
0:0:28:826, 2196 
0:0:28:841, 2204 
0:0:28:857, 2210 
0:0:28:872, 2210 
0:0:28:887, 2205 
0:0:28:903, 2183 
0:0:28:919, 2161 
0:0:28:934, 2138 
0:0:28:949, 2129 
0:0:28:965, 2118 
0:0:28:981, 2115 
0:0:28:997, 2122 
0:0:29:13, 2127 
0:0:29:29, 2123 
0:0:29:45, 2112 
0:0:29:60, 2093 
0:0:29:75, 2072 
0:0:29:90, 2055 
0:0:29:106, 2026 
0:0:29:122, 1996 
0:0:29:137, 1972 
0:0:29:153, 1948 
0:0:29:169, 1927 
0:0:29:184, 1901 
0:0:29:200, 1863 
0:0:29:216, 1844 
0:0:29:232, 1823 
0:0:29:248, 1809 
0:0:29:264, 1802 
0:0:29:280, 1798 
0:0:29:295, 1790 
0:0:29:310, 1784 
0:0:29:325, 1787 
0:0:29:341, 1793 
0:0:29:358, 1789 
0:0:29:373, 1780 
0:0:29:389, 1784 
0:0:29:405, 1779 
0:0:29:421, 1773 
0:0:29:436, 1760 
0:0:29:452, 1739 
0:0:29:468, 1725 
0:0:29:483, 1722 
0:0:29:499, 1731 
0:0:29:515, 1775 
0:0:29:530, 1851 
0:0:29:546, 1928 
0:0:29:562, 2015 
0:0:29:578, 2151 
0:0:29:593, 2237 
0:0:29:608, 2266 
0:0:29:624, 2291 
0:0:29:639, 2289 
0:0:29:655, 2273 
0:0:29:671, 2251 
0:0:29:686, 2248 
0:0:29:701, 2251 
0:0:29:716, 2253 
0:0:29:731, 2260 
0:0:29:747, 2270 
0:0:29:762, 2268 
0:0:29:777, 2277 
0:0:29:792, 2268 
0:0:29:808, 2237 
0:0:29:824, 2200 
0:0:29:839, 2160 
0:0:29:855, 2133 
0:0:29:871, 2106 
0:0:29:887, 2087 
0:0:29:903, 2067 
0:0:29:919, 2053 
0:0:29:935, 2041 
0:0:29:951, 2012 
0:0:29:966, 1990 
0:0:29:981, 1964 
0:0:29:996, 1951 
0:0:30:11, 1932 
0:0:30:27, 1912 
0:0:30:43, 1896 
0:0:30:59, 1879 
0:0:30:75, 1861 
0:0:30:91, 1853 
0:0:30:107, 1846 
0:0:30:122, 1835 
0:0:30:137, 1827 
0:0:30:153, 1821 
0:0:30:168, 1816 
0:0:30:183, 1804 
0:0:30:198, 1787 
0:0:30:213, 1784 
0:0:30:228, 1790 
0:0:30:243, 1795 
0:0:30:259, 1797 
0:0:30:275, 1802 
0:0:30:291, 1806 
0:0:30:307, 1809 
0:0:30:323, 1820 
0:0:30:339, 1839 
0:0:30:354, 1876 
0:0:30:369, 1921 
0:0:30:385, 2005 
0:0:30:401, 2099 
0:0:30:417, 2192 
0:0:30:433, 2271 
0:0:30:448, 2325 
0:0:30:463, 2343 
0:0:30:478, 2339 
0:0:30:493, 2312 
0:0:30:508, 2297 
0:0:30:524, 2288 
0:0:30:539, 2283 
0:0:30:555, 2277 
0:0:30:571, 2287 
0:0:30:587, 2295 
0:0:30:603, 2279 
0:0:30:619, 2250 
0:0:30:635, 2229 
0:0:30:651, 2194 
0:0:30:667, 2179 
0:0:30:683, 2153 
0:0:30:698, 2144 
0:0:30:713, 2131 
0:0:30:729, 2114 
0:0:30:744, 2115 
0:0:30:760, 2106 
0:0:30:776, 2097 
0:0:30:792, 2081 
0:0:30:808, 2063 
0:0:30:824, 2039 
0:0:30:840, 2011 
0:0:30:856, 1980 
0:0:30:872, 1940 
0:0:30:887, 1913 
0:0:30:902, 1904 
0:0:30:917, 1907 
0:0:30:932, 1907 
0:0:30:947, 1898 
0:0:30:963, 1888 
0:0:30:979, 1871 
0:0:30:995, 1843 
0:0:31:11, 1837 
0:0:31:27, 1826 
0:0:31:42, 1814 
0:0:31:58, 1815 
0:0:31:73, 1816 
0:0:31:88, 1815 
0:0:31:104, 1809 
0:0:31:119, 1791 
0:0:31:134, 1768 
0:0:31:150, 1759 
0:0:31:165, 1750 
0:0:31:180, 1737 
0:0:31:196, 1724 
0:0:31:212, 1715 
0:0:31:228, 1721 
0:0:31:244, 1742 
0:0:31:260, 1800 
0:0:31:276, 1870 
0:0:31:292, 1991 
0:0:31:308, 2085 
0:0:31:323, 2167 
0:0:31:338, 2235 
0:0:31:354, 2294 
0:0:31:370, 2316 
0:0:31:386, 2333 
0:0:31:401, 2331 
0:0:31:416, 2324 
0:0:31:432, 2323 
0:0:31:448, 2324 
0:0:31:464, 2333 
0:0:31:480, 2358 
0:0:31:496, 2363 
0:0:31:512, 2342 
0:0:31:528, 2314 
0:0:31:543, 2287 
0:0:31:559, 2245 
0:0:31:575, 2199 
0:0:31:591, 2150 
0:0:31:607, 2120 
0:0:31:623, 2108 
0:0:31:638, 2104 
0:0:31:654, 2097 
0:0:31:670, 2089 
0:0:31:685, 2076 
0:0:31:701, 2050 
0:0:31:717, 2031 
0:0:31:733, 2007 
0:0:31:748, 1982 
0:0:31:764, 1964 
0:0:31:780, 1944 
0:0:31:796, 1937 
0:0:31:812, 1923 
0:0:31:828, 1900 
0:0:31:844, 1887 
0:0:31:859, 1873 
0:0:31:874, 1857 
0:0:31:889, 1850 
0:0:31:904, 1834 
0:0:31:920, 1805 
0:0:31:936, 1778 
0:0:31:952, 1743 
0:0:31:968, 1721 
0:0:31:984, 1689 
0:0:32:0, 1673 
0:0:32:16, 1660 
0:0:32:32, 1640 
0:0:32:49, 1630 
0:0:32:65, 1625 
0:0:32:80, 1625 
0:0:32:95, 1630 
0:0:32:110, 1635 
0:0:32:125, 1644 
0:0:32:141, 1672 
0:0:32:157, 1708 
0:0:32:173, 1782 
0:0:32:189, 1889 
0:0:32:204, 2000 
0:0:32:219, 2069 
0:0:32:234, 2149 
0:0:32:249, 2203 
0:0:32:264, 2227 
0:0:32:280, 2236 
0:0:32:295, 2234 
0:0:32:311, 2229 
0:0:32:327, 2215 
0:0:32:342, 2209 
0:0:32:357, 2215 
0:0:32:372, 2234 
0:0:32:388, 2244 
0:0:32:404, 2245 
0:0:32:420, 2231 
0:0:32:435, 2212 
0:0:32:451, 2183 
0:0:32:466, 2163 
0:0:32:482, 2137 
0:0:32:498, 2112 
0:0:32:514, 2080 
0:0:32:530, 2056 
0:0:32:546, 2035 
0:0:32:562, 2016 
0:0:32:577, 2007 
0:0:32:592, 2001 
0:0:32:608, 1992 
0:0:32:624, 1972 
0:0:32:639, 1952 
0:0:32:655, 1929 
0:0:32:671, 1915 
0:0:32:686, 1890 
0:0:32:702, 1865 
0:0:32:718, 1857 
0:0:32:734, 1855 
0:0:32:750, 1840 
0:0:32:766, 1826 
0:0:32:782, 1816 
0:0:32:798, 1811 
0:0:32:813, 1823 
0:0:32:828, 1837 
0:0:32:843, 1846 
0:0:32:859, 1843 
0:0:32:874, 1845 
0:0:32:890, 1854 
0:0:32:906, 1860 
0:0:32:922, 1866 
0:0:32:938, 1887 
0:0:32:954, 1913 
0:0:32:970, 1918 
0:0:32:986, 1918 
0:0:33:2, 1906 
0:0:33:17, 1895 
0:0:33:33, 1922 
0:0:33:48, 1975 
0:0:33:63, 2060 
0:0:33:79, 2156 
0:0:33:94, 2237 
0:0:33:110, 2289 
0:0:33:126, 2356 
0:0:33:142, 2356 
0:0:33:158, 2328 
0:0:33:174, 2311 
0:0:33:190, 2306 
0:0:33:205, 2288 
0:0:33:220, 2277 
0:0:33:236, 2248 
0:0:33:252, 2208 
0:0:33:268, 2174 
0:0:33:283, 2149 
0:0:33:298, 2089 
0:0:33:313, 2056 
0:0:33:328, 2009 
0:0:33:344, 1955 
0:0:33:360, 1915 
0:0:33:375, 1881 
0:0:33:390, 1878 
0:0:33:405, 1891 
0:0:33:421, 1910 
0:0:33:437, 1928 
0:0:33:453, 1956 
0:0:33:468, 1968 
0:0:33:483, 1973 
0:0:33:499, 1972 
0:0:33:515, 1971 
0:0:33:530, 1965 
0:0:33:545, 1955 
0:0:33:561, 1944 
0:0:33:577, 1912 
0:0:33:593, 1875 
0:0:33:609, 1858 
0:0:33:625, 1843 
0:0:33:640, 1829 
0:0:33:656, 1824 
0:0:33:672, 1815 
0:0:33:688, 1811 
0:0:33:704, 1811 
0:0:33:720, 1801 
0:0:33:736, 1791 
0:0:33:752, 1784 
0:0:33:767, 1777 
0:0:33:783, 1770 
0:0:33:799, 1754 
0:0:33:814, 1742 
0:0:33:829, 1751 
0:0:33:844, 1786 
0:0:33:860, 1854 
0:0:33:876, 1954 
0:0:33:892, 2058 
0:0:33:908, 2134 
0:0:33:924, 2224 
0:0:33:939, 2280 
0:0:33:954, 2310 
0:0:33:969, 2309 
0:0:33:984, 2297 
0:0:33:999, 2282 
0:0:34:15, 2265 
0:0:34:31, 2250 
0:0:34:47, 2239 
0:0:34:63, 2217 
0:0:34:79, 2194 
0:0:34:94, 2147 
0:0:34:109, 2119 
0:0:34:124, 2092 
0:0:34:139, 2077 
0:0:34:155, 2072 
0:0:34:171, 2088 
0:0:34:186, 2099 
0:0:34:202, 2124 
0:0:34:217, 2144 
0:0:34:232, 2153 
0:0:34:248, 2162 
0:0:34:264, 2165 
0:0:34:280, 2161 
0:0:34:296, 2147 
0:0:34:311, 2127 
0:0:34:327, 2099 
0:0:34:343, 2059 
0:0:34:359, 2015 
0:0:34:375, 1963 
0:0:34:391, 1919 
0:0:34:407, 1890 
0:0:34:422, 1873 
0:0:34:437, 1857 
0:0:34:452, 1856 
0:0:34:467, 1856 
0:0:34:483, 1842 
0:0:34:498, 1828 
0:0:34:514, 1819 
0:0:34:529, 1800 
0:0:34:545, 1775 
0:0:34:561, 1754 
0:0:34:577, 1733 
0:0:34:592, 1719 
0:0:34:607, 1722 
0:0:34:623, 1745 
0:0:34:638, 1794 
0:0:34:654, 1893 
0:0:34:669, 2005 
0:0:34:684, 2117 
0:0:34:699, 2236 
0:0:34:714, 2293 
0:0:34:729, 2332 
0:0:34:746, 2354 
0:0:34:761, 2347 
0:0:34:777, 2333 
0:0:34:793, 2314 
0:0:34:809, 2304 
0:0:34:825, 2303 
0:0:34:840, 2308 
0:0:34:856, 2321 
0:0:34:872, 2329 
0:0:34:888, 2321 
0:0:34:903, 2304 
0:0:34:918, 2275 
0:0:34:933, 2234 
0:0:34:949, 2169 
0:0:34:965, 2113 
0:0:34:981, 2066 
0:0:34:996, 2024 
0:0:35:11, 2006 
0:0:35:27, 1992 
0:0:35:42, 1983 
0:0:35:58, 1975 
0:0:35:74, 1956 
0:0:35:90, 1939 
0:0:35:105, 1917 
0:0:35:120, 1904 
0:0:35:135, 1894 
0:0:35:151, 1889 
0:0:35:166, 1874 
0:0:35:181, 1846 
0:0:35:197, 1823 
0:0:35:213, 1796 
0:0:35:228, 1784 
0:0:35:243, 1781 
0:0:35:259, 1775 
0:0:35:275, 1769 
0:0:35:290, 1759 
0:0:35:305, 1744 
0:0:35:321, 1723 
0:0:35:337, 1697 
0:0:35:352, 1681 
0:0:35:368, 1667 
0:0:35:383, 1657 
0:0:35:398, 1666 
0:0:35:413, 1710 
0:0:35:428, 1782 
0:0:35:443, 1876 
0:0:35:459, 1977 
0:0:35:475, 2081 
0:0:35:491, 2180 
0:0:35:507, 2225 
0:0:35:523, 2226 
0:0:35:539, 2199 
0:0:35:554, 2170 
0:0:35:570, 2141 
0:0:35:586, 2122 
0:0:35:602, 2114 
0:0:35:617, 2116 
0:0:35:632, 2112 
0:0:35:648, 2100 
0:0:35:664, 2079 
0:0:35:680, 2065 
0:0:35:696, 2054 
0:0:35:711, 2041 
0:0:35:726, 2032 
0:0:35:741, 2015 
0:0:35:757, 1993 
0:0:35:772, 1973 
0:0:35:788, 1950 
0:0:35:803, 1935 
0:0:35:819, 1923 
0:0:35:835, 1907 
0:0:35:850, 1887 
0:0:35:865, 1861 
0:0:35:880, 1830 
0:0:35:896, 1806 
0:0:35:912, 1770 
0:0:35:927, 1758 
0:0:35:943, 1747 
0:0:35:958, 1750 
0:0:35:974, 1760 
0:0:35:990, 1769 
0:0:36:6, 1765 
0:0:36:22, 1745 
0:0:36:37, 1732 
0:0:36:52, 1705 
0:0:36:68, 1676 
0:0:36:83, 1656 
0:0:36:98, 1646 
0:0:36:114, 1681 
0:0:36:130, 1744 
0:0:36:146, 1789 
0:0:36:161, 1871 
0:0:36:177, 1955 
0:0:36:193, 2032 
0:0:36:209, 2145 
0:0:36:225, 2201 
0:0:36:240, 2220 
0:0:36:256, 2231 
0:0:36:272, 2226 
0:0:36:287, 2218 
0:0:36:303, 2208 
0:0:36:318, 2204 
0:0:36:333, 2205 
0:0:36:349, 2204 
0:0:36:365, 2193 
0:0:36:380, 2178 
0:0:36:395, 2161 
0:0:36:410, 2139 
0:0:36:427, 2121 
0:0:36:442, 2096 
0:0:36:459, 2077 
0:0:36:474, 2054 
0:0:36:490, 2032 
0:0:36:506, 1992 
0:0:36:521, 1969 
0:0:36:536, 1939 
0:0:36:552, 1905 
0:0:36:567, 1886 
0:0:36:582, 1863 
0:0:36:598, 1853 
0:0:36:613, 1842 
0:0:36:629, 1838 
0:0:36:645, 1833 
0:0:36:660, 1824 
0:0:36:675, 1822 
0:0:36:691, 1825 
0:0:36:706, 1821 
0:0:36:721, 1803 
0:0:36:737, 1784 
0:0:36:753, 1762 
0:0:36:768, 1736 
0:0:36:783, 1726 
0:0:36:798, 1718 
0:0:36:814, 1708 
0:0:36:830, 1706 
0:0:36:845, 1703 
0:0:36:861, 1706 
0:0:36:876, 1711 
0:0:36:891, 1716 
0:0:36:906, 1720 
0:0:36:922, 1723 
0:0:36:938, 1721 
0:0:36:954, 1714 
0:0:36:969, 1704 
0:0:36:985, 1682 
0:0:37:1, 1656 
0:0:37:16, 1634 
0:0:37:31, 1624 
0:0:37:46, 1635 
0:0:37:62, 1674 
0:0:37:78, 1729 
0:0:37:94, 1844 
0:0:37:110, 1954 
0:0:37:126, 2053 
0:0:37:142, 2127 
0:0:37:158, 2184 
0:0:37:173, 2212 
0:0:37:189, 2216 
0:0:37:205, 2202 
0:0:37:221, 2189 
0:0:37:236, 2169 
0:0:37:252, 2158 
0:0:37:267, 2156 
0:0:37:282, 2162 
0:0:37:298, 2171 
0:0:37:313, 2176 
0:0:37:329, 2178 
0:0:37:344, 2179 
0:0:37:360, 2164 
0:0:37:376, 2146 
0:0:37:392, 2120 
0:0:37:408, 2089 
0:0:37:424, 2066 
0:0:37:440, 2041 
0:0:37:456, 2021 
0:0:37:472, 2014 
0:0:37:487, 2008 
0:0:37:502, 1998 
0:0:37:518, 1991 
0:0:37:534, 1971 
0:0:37:550, 1959 
0:0:37:566, 1942 
0:0:37:582, 1916 
0:0:37:597, 1890 
0:0:37:613, 1868 
0:0:37:629, 1845 
0:0:37:644, 1816 
0:0:37:659, 1785 
0:0:37:674, 1762 
0:0:37:690, 1733 
0:0:37:706, 1710 
0:0:37:721, 1700 
0:0:37:737, 1703 
0:0:37:753, 1711 
0:0:37:769, 1711 
0:0:37:785, 1697 
0:0:37:801, 1680 
0:0:37:817, 1675 
0:0:37:833, 1677 
0:0:37:849, 1676 
0:0:37:865, 1675 
0:0:37:881, 1665 
0:0:37:897, 1657 
0:0:37:912, 1683 
0:0:37:927, 1704 
0:0:37:943, 1770 
0:0:37:958, 1869 
0:0:37:973, 1919 
0:0:37:988, 1993 
0:0:38:4, 2103 
0:0:38:19, 2178 
0:0:38:35, 2204 
0:0:38:51, 2216 
0:0:38:66, 2210 
0:0:38:82, 2185 
0:0:38:98, 2159 
0:0:38:114, 2138 
0:0:38:130, 2146 
0:0:38:145, 2168 
0:0:38:161, 2191 
0:0:38:177, 2198 
0:0:38:192, 2182 
0:0:38:207, 2155 
0:0:38:222, 2126 
0:0:38:238, 2098 
0:0:38:253, 2086 
0:0:38:269, 2064 
0:0:38:285, 2054 
0:0:38:301, 2039 
0:0:38:317, 2026 
0:0:38:333, 2016 
0:0:38:349, 2007 
0:0:38:365, 1992 
0:0:38:380, 1987 
0:0:38:396, 1980 
0:0:38:412, 1967 
0:0:38:427, 1959 
0:0:38:443, 1952 
0:0:38:459, 1935 
0:0:38:474, 1904 
0:0:38:490, 1874 
0:0:38:506, 1847 
0:0:38:522, 1821 
0:0:38:538, 1807 
0:0:38:554, 1801 
0:0:38:569, 1795 
0:0:38:585, 1780 
0:0:38:600, 1761 
0:0:38:616, 1756 
0:0:38:632, 1764 
0:0:38:648, 1772 
0:0:38:663, 1775 
0:0:38:678, 1773 
0:0:38:694, 1759 
0:0:38:710, 1743 
0:0:38:726, 1724 
0:0:38:742, 1712 
0:0:38:758, 1707 
0:0:38:773, 1702 
0:0:38:788, 1710 
0:0:38:804, 1726 
0:0:38:820, 1776 
0:0:38:836, 1840 
0:0:38:852, 1954 
0:0:38:867, 2047 
0:0:38:883, 2126 
0:0:38:898, 2213 
0:0:38:913, 2260 
0:0:38:929, 2288 
0:0:38:944, 2286 
0:0:38:960, 2263 
0:0:38:976, 2241 
0:0:38:992, 2202 
0:0:39:8, 2192 
0:0:39:24, 2190 
0:0:39:40, 2188 
0:0:39:56, 2188 
0:0:39:72, 2188 
0:0:39:88, 2178 
0:0:39:104, 2162 
0:0:39:120, 2141 
0:0:39:135, 2116 
0:0:39:150, 2081 
0:0:39:166, 2067 
0:0:39:182, 2054 
0:0:39:198, 2044 
0:0:39:214, 2043 
0:0:39:230, 2042 
0:0:39:246, 2044 
0:0:39:262, 2041 
0:0:39:278, 2025 
0:0:39:293, 2015 
0:0:39:308, 1996 
0:0:39:324, 1982 
0:0:39:340, 1966 
0:0:39:356, 1959 
0:0:39:371, 1959 
0:0:39:386, 1958 
0:0:39:401, 1956 
0:0:39:417, 1953 
0:0:39:433, 1933 
0:0:39:448, 1901 
0:0:39:464, 1870 
0:0:39:479, 1856 
0:0:39:495, 1836 
0:0:39:511, 1821 
0:0:39:527, 1801 
0:0:39:543, 1772 
0:0:39:559, 1736 
0:0:39:575, 1706 
0:0:39:591, 1663 
0:0:39:606, 1642 
0:0:39:621, 1612 
0:0:39:637, 1586 
0:0:39:653, 1573 
0:0:39:668, 1597 
0:0:39:684, 1650 
0:0:39:700, 1751 
0:0:39:716, 1843 
0:0:39:731, 1971 
0:0:39:746, 2092 
0:0:39:762, 2226 
0:0:39:777, 2297 
0:0:39:792, 2382 
0:0:39:807, 2452 
0:0:39:823, 2479 
0:0:39:839, 2493 
0:0:39:854, 2503 
0:0:39:869, 2511 
0:0:39:885, 2515 
0:0:39:901, 2520 
0:0:39:917, 2521 
0:0:39:932, 2516 
0:0:39:948, 2491 
0:0:39:964, 2458 
0:0:39:980, 2419 
0:0:39:995, 2379 
0:0:40:10, 2345 
0:0:40:26, 2316 
0:0:40:42, 2297 
0:0:40:58, 2283 
0:0:40:73, 2276 
0:0:40:88, 2279 
0:0:40:103, 2284 
0:0:40:119, 2290 
0:0:40:135, 2294 
0:0:40:151, 2291 
0:0:40:167, 2274 
0:0:40:183, 2254 
0:0:40:199, 2243 
0:0:40:214, 2228 
0:0:40:230, 2218 
0:0:40:246, 2212 
0:0:40:261, 2212 
0:0:40:277, 2226 
0:0:40:293, 2266 
0:0:40:308, 2304 
0:0:40:323, 2349 
0:0:40:339, 2401 
0:0:40:355, 2442 
0:0:40:371, 2469 
0:0:40:387, 2468 
0:0:40:403, 2439 
0:0:40:419, 2411 
0:0:40:435, 2359 
0:0:40:450, 2283 
0:0:40:466, 2181 
0:0:40:482, 2039 
0:0:40:498, 1865 
0:0:40:514, 1696 
0:0:40:529, 1590 
0:0:40:544, 1518 
0:0:40:559, 1534 
0:0:40:574, 1596 
0:0:40:589, 1685 
0:0:40:605, 1811 
0:0:40:621, 1936 
0:0:40:637, 2011 
0:0:40:653, 2059 
0:0:40:669, 2068 
0:0:40:685, 2061 
0:0:40:700, 2050 
0:0:40:716, 2047 
0:0:40:732, 2050 
0:0:40:747, 2061 
0:0:40:763, 2083 
0:0:40:778, 2105 
0:0:40:793, 2110 
0:0:40:808, 2108 
0:0:40:823, 2101 
0:0:40:840, 2090 
0:0:40:856, 2096 
0:0:40:872, 2114 
0:0:40:888, 2150 
0:0:40:904, 2190 
0:0:40:919, 2215 
0:0:40:935, 2245 
0:0:40:951, 2270 
0:0:40:967, 2279 
0:0:40:983, 2295 
0:0:40:999, 2312 
0:0:41:14, 2336 
0:0:41:29, 2349 
0:0:41:44, 2354 
0:0:41:60, 2364 
0:0:41:76, 2365 
0:0:41:92, 2370 
0:0:41:108, 2374 
0:0:41:124, 2373 
0:0:41:140, 2369 
0:0:41:156, 2361 
0:0:41:172, 2335 
0:0:41:187, 2309 
0:0:41:202, 2286 
0:0:41:217, 2263 
0:0:41:233, 2235 
0:0:41:248, 2217 
0:0:41:263, 2208 
0:0:41:279, 2210 
0:0:41:295, 2260 
0:0:41:311, 2328 
0:0:41:326, 2421 
0:0:41:342, 2554 
0:0:41:357, 2641 
0:0:41:373, 2735 
0:0:41:389, 2802 
0:0:41:404, 2807 
0:0:41:420, 2788 
0:0:41:436, 2738 
0:0:41:452, 2682 
0:0:41:467, 2609 
0:0:41:482, 2538 
0:0:41:497, 2477 
0:0:41:513, 2438 
0:0:41:528, 2412 
0:0:41:544, 2398 
0:0:41:560, 2366 
0:0:41:576, 2329 
0:0:41:592, 2290 
0:0:41:608, 2258 
0:0:41:624, 2233 
0:0:41:640, 2205 
0:0:41:656, 2180 
0:0:41:672, 2172 
0:0:41:688, 2164 
0:0:41:704, 2162 
0:0:41:719, 2171 
0:0:41:734, 2172 
0:0:41:750, 2169 
0:0:41:766, 2168 
0:0:41:782, 2169 
0:0:41:798, 2182 
0:0:41:814, 2215 
0:0:41:830, 2263 
0:0:41:845, 2304 
0:0:41:861, 2355 
0:0:41:876, 2420 
0:0:41:891, 2459 
0:0:41:906, 2498 
0:0:41:921, 2516 
0:0:41:936, 2521 
0:0:41:951, 2518 
0:0:41:966, 2505 
0:0:41:982, 2480 
0:0:41:998, 2478 
0:0:42:14, 2491 
0:0:42:29, 2514 
0:0:42:44, 2558 
0:0:42:60, 2627 
0:0:42:76, 2734 
0:0:42:92, 2880 
0:0:42:108, 3025 
0:0:42:124, 3148 
0:0:42:139, 3241 
0:0:42:154, 3275 
0:0:42:170, 3293 
0:0:42:185, 3270 
0:0:42:200, 3218 
0:0:42:215, 3175 
0:0:42:230, 3110 
0:0:42:246, 3059 
0:0:42:262, 3010 
0:0:42:278, 2959 
0:0:42:294, 2907 
0:0:42:310, 2840 
0:0:42:326, 2786 
0:0:42:341, 2729 
0:0:42:358, 2693 
0:0:42:374, 2622 
0:0:42:390, 2542 
0:0:42:406, 2459 
0:0:42:421, 2400 
0:0:42:436, 2314 
0:0:42:451, 2223 
0:0:42:466, 2151 
0:0:42:481, 2045 
0:0:42:497, 1938 
0:0:42:512, 1853 
0:0:42:527, 1788 
0:0:42:543, 1743 
0:0:42:559, 1701 
0:0:42:575, 1680 
0:0:42:591, 1664 
0:0:42:607, 1651 
0:0:42:623, 1631 
0:0:42:639, 1613 
0:0:42:654, 1581 
0:0:42:669, 1526 
0:0:42:685, 1453 
0:0:42:701, 1358 
0:0:42:717, 1258 
0:0:42:732, 1178 
0:0:42:748, 1110 
0:0:42:764, 1050 
0:0:42:779, 1007 
0:0:42:794, 946 
0:0:42:810, 893 
0:0:42:826, 802 
0:0:42:842, 684 
0:0:42:858, 565 
0:0:42:874, 476 
0:0:42:889, 383 
0:0:42:905, 329 
0:0:42:921, 314 
0:0:42:936, 334 
0:0:42:952, 412 
0:0:42:968, 499 
0:0:42:983, 605 
0:0:42:999, 735 
0:0:43:15, 936 
0:0:43:31, 1089 
0:0:43:46, 1189 
0:0:43:62, 1373 
0:0:43:78, 1530 
0:0:43:93, 1651 
0:0:43:109, 1754 
0:0:43:124, 1805 
0:0:43:139, 1852 
0:0:43:154, 1900 
0:0:43:169, 1947 
0:0:43:185, 1982 
0:0:43:200, 2013 
0:0:43:215, 2039 
0:0:43:231, 2073 
0:0:43:247, 2084 
0:0:43:262, 2084 
0:0:43:277, 2077 
0:0:43:293, 2069 
0:0:43:309, 2059 
0:0:43:325, 2055 
0:0:43:341, 2053 
0:0:43:356, 2054 
0:0:43:371, 2059 
0:0:43:387, 2066 
0:0:43:403, 2065 
0:0:43:419, 2055 
0:0:43:435, 2043 
0:0:43:451, 2026 
0:0:43:467, 2003 
0:0:43:483, 1982 
0:0:43:499, 1959 
0:0:43:515, 1939 
0:0:43:530, 1921 
0:0:43:545, 1899 
0:0:43:561, 1884 
0:0:43:577, 1880 
0:0:43:592, 1870 
0:0:43:607, 1855 
0:0:43:623, 1832 
0:0:43:639, 1801 
0:0:43:654, 1790 
0:0:43:670, 1789 
0:0:43:686, 1785 
0:0:43:702, 1773 
0:0:43:718, 1762 
0:0:43:734, 1753 
0:0:43:749, 1728 
0:0:43:765, 1713 
0:0:43:781, 1698 
0:0:43:796, 1679 
0:0:43:811, 1667 
0:0:43:827, 1670 
0:0:43:842, 1672 
0:0:43:858, 1665 
0:0:43:874, 1660 
0:0:43:889, 1648 
0:0:43:904, 1626 
0:0:43:920, 1610 
0:0:43:935, 1598 
0:0:43:950, 1617 
0:0:43:966, 1694 
0:0:43:981, 1813 
0:0:43:997, 1913 
0:0:44:13, 2056 
0:0:44:29, 2185 
0:0:44:44, 2282 
0:0:44:59, 2365 
0:0:44:74, 2401 
0:0:44:89, 2430 
0:0:44:105, 2439 
0:0:44:121, 2436 
0:0:44:137, 2422 
0:0:44:153, 2418 
0:0:44:169, 2417 
0:0:44:184, 2423 
0:0:44:200, 2429 
0:0:44:216, 2424 
0:0:44:231, 2413 
0:0:44:247, 2394 
0:0:44:262, 2361 
0:0:44:277, 2323 
0:0:44:292, 2290 
0:0:44:307, 2049 
0:0:44:323, 2020 
0:0:44:338, 1991 
0:0:44:354, 1961 
0:0:44:369, 1938 
0:0:44:384, 1922 
0:0:44:400, 1915 
0:0:44:416, 1897 
0:0:44:432, 1875 
0:0:44:447, 1853 
0:0:44:462, 1818 
0:0:44:477, 1800 
0:0:44:493, 1785 
0:0:44:509, 1774 
0:0:44:524, 1775 
0:0:44:539, 1770 
0:0:44:555, 1750 
0:0:44:571, 1737 
0:0:44:587, 1724 
0:0:44:603, 1703 
0:0:44:619, 1677 
0:0:44:635, 1646 
0:0:44:650, 1637 
0:0:44:666, 1641 
0:0:44:681, 1639 
0:0:44:696, 1636 
0:0:44:712, 1642 
0:0:44:727, 1634 
0:0:44:743, 1622 
0:0:44:758, 1615 
0:0:44:773, 1604 
0:0:44:788, 1595 
0:0:44:804, 1595 
0:0:44:820, 1606 
0:0:44:835, 1634 
0:0:44:851, 1662 
0:0:44:867, 1707 
0:0:44:883, 1809 
0:0:44:899, 1953 
0:0:44:915, 2112 
0:0:44:931, 2263 
0:0:44:946, 2350 
0:0:44:962, 2450 
0:0:44:978, 2496 
0:0:44:993, 2513 
0:0:45:8, 2514 
0:0:45:24, 2490 
0:0:45:40, 2459 
0:0:45:55, 2433 
0:0:45:70, 2423 
0:0:45:86, 2415 
0:0:45:102, 2410 
0:0:45:118, 2397 
0:0:45:134, 2376 
0:0:45:150, 2342 
0:0:45:166, 2290 
0:0:45:182, 2245 
0:0:45:198, 2202 
0:0:45:213, 2171 
0:0:45:228, 2150 
0:0:45:243, 2124 
0:0:45:259, 2102 
0:0:45:275, 2088 
0:0:45:290, 2076 
0:0:45:306, 2061 
0:0:45:322, 2047 
0:0:45:338, 2025 
0:0:45:353, 2006 
0:0:45:369, 1980 
0:0:45:385, 1951 
0:0:45:401, 1921 
0:0:45:417, 1907 
0:0:45:433, 1889 
0:0:45:449, 1862 
0:0:45:464, 1828 
0:0:45:479, 1809 
0:0:45:494, 1774 
0:0:45:510, 1746 
0:0:45:526, 1728 
0:0:45:542, 1703 
0:0:45:558, 1687 
0:0:45:574, 1665 
0:0:45:590, 1651 
0:0:45:606, 1635 
0:0:45:622, 1616 
0:0:45:638, 1598 
0:0:45:653, 1574 
0:0:45:669, 1562 
0:0:45:685, 1551 
0:0:45:700, 1537 
0:0:45:715, 1536 
0:0:45:731, 1536 
0:0:45:747, 1539 
0:0:45:763, 1545 
0:0:45:779, 1551 
0:0:45:794, 1568 
0:0:45:810, 1621 
0:0:45:826, 1705 
0:0:45:841, 1819 
0:0:45:857, 1956 
0:0:45:872, 2104 
0:0:45:887, 2208 
0:0:45:903, 2324 
0:0:45:919, 2355 
0:0:45:934, 2391 
0:0:45:949, 2396 
0:0:45:965, 2378 
0:0:45:981, 2352 
0:0:45:997, 2316 
0:0:46:13, 2290 
0:0:46:29, 2281 
0:0:46:45, 2287 
0:0:46:61, 2255 
0:0:46:77, 2118 
0:0:46:92, 2092 
0:0:46:108, 2055 
0:0:46:123, 2000 
0:0:46:139, 1964 
0:0:46:154, 1916 
0:0:46:169, 1889 
0:0:46:184, 1869 
0:0:46:200, 1846 
0:0:46:216, 1828 
0:0:46:232, 1812 
0:0:46:247, 1803 
0:0:46:263, 1796 
0:0:46:278, 1788 
0:0:46:294, 1773 
0:0:46:309, 1759 
0:0:46:325, 1739 
0:0:46:341, 1721 
0:0:46:356, 1708 
0:0:46:372, 1700 
0:0:46:388, 1695 
0:0:46:403, 1701 
0:0:46:418, 1708 
0:0:46:433, 1705 
0:0:46:449, 1687 
0:0:46:464, 1669 
0:0:46:479, 1659 
0:0:46:495, 1641 
0:0:46:511, 1631 
0:0:46:527, 1631 
0:0:46:542, 1649 
0:0:46:558, 1720 
0:0:46:574, 1803 
0:0:46:589, 1942 
0:0:46:605, 2098 
0:0:46:621, 2265 
0:0:46:636, 2372 
0:0:46:651, 2426 
0:0:46:666, 2440 
0:0:46:682, 2431 
0:0:46:698, 2421 
0:0:46:714, 2405 
0:0:46:730, 2399 
0:0:46:745, 2396 
0:0:46:761, 2385 
0:0:46:777, 2384 
0:0:46:793, 2370 
0:0:46:809, 2344 
0:0:46:825, 2320 
0:0:46:841, 2272 
0:0:46:857, 2231 
0:0:46:872, 2207 
0:0:46:887, 2191 
0:0:46:904, 2170 
0:0:46:919, 2157 
0:0:46:934, 2146 
0:0:46:950, 2112 
0:0:46:966, 2085 
0:0:46:981, 2066 
0:0:46:997, 2044 
0:0:47:13, 2029 
0:0:47:29, 2013 
0:0:47:44, 1985 
0:0:47:60, 1941 
0:0:47:76, 1898 
0:0:47:92, 1856 
0:0:47:107, 1824 
0:0:47:122, 1796 
0:0:47:138, 1778 
0:0:47:153, 1772 
0:0:47:169, 1765 
0:0:47:185, 1757 
0:0:47:201, 1752 
0:0:47:217, 1736 
0:0:47:233, 1716 
0:0:47:249, 1707 
0:0:47:265, 1701 
0:0:47:281, 1695 
0:0:47:297, 1690 
0:0:47:313, 1686 
0:0:47:329, 1685 
0:0:47:345, 1680 
0:0:47:360, 1668 
0:0:47:376, 1652 
0:0:47:392, 1645 
0:0:47:407, 1637 
0:0:47:422, 1620 
0:0:47:438, 1607 
0:0:47:454, 1605 
0:0:47:470, 1597 
0:0:47:485, 1587 
0:0:47:500, 1599 
0:0:47:516, 1651 
0:0:47:532, 1793 
0:0:47:547, 1908 
0:0:47:562, 2033 
0:0:47:578, 2193 
0:0:47:593, 2323 
0:0:47:608, 2423 
0:0:47:623, 2468 
0:0:47:638, 2474 
0:0:47:654, 2467 
0:0:47:670, 2454 
0:0:47:685, 2440 
0:0:47:701, 2435 
0:0:47:717, 2421 
0:0:47:733, 2404 
0:0:47:748, 2393 
0:0:47:764, 2376 
0:0:47:780, 2346 
0:0:47:796, 2312 
0:0:47:812, 2271 
0:0:47:828, 2247 
0:0:47:844, 2226 
0:0:47:860, 2198 
0:0:47:875, 2179 
0:0:47:890, 1981 
0:0:47:906, 1936 
0:0:47:922, 1914 
0:0:47:938, 1870 
0:0:47:954, 1836 
0:0:47:970, 1824 
0:0:47:986, 1796 
0:0:48:2, 1770 
0:0:48:18, 1753 
0:0:48:34, 1740 
0:0:48:50, 1715 
0:0:48:66, 1683 
0:0:48:82, 1651 
0:0:48:97, 1626 
0:0:48:112, 1605 
0:0:48:127, 1600 
0:0:48:142, 1593 
0:0:48:157, 1577 
0:0:48:173, 1573 
0:0:48:189, 1562 
0:0:48:205, 1543 
0:0:48:221, 1526 
0:0:48:236, 1508 
0:0:48:251, 1510 
0:0:48:267, 1539 
0:0:48:283, 1617 
0:0:48:298, 1705 
0:0:48:313, 1821 
0:0:48:329, 1993 
0:0:48:344, 2119 
0:0:48:359, 2233 
0:0:48:375, 2349 
0:0:48:391, 2436 
0:0:48:407, 2495 
0:0:48:423, 2512 
0:0:48:439, 2506 
0:0:48:455, 2477 
0:0:48:470, 2447 
0:0:48:485, 2416 
0:0:48:500, 2396 
0:0:48:516, 2392 
0:0:48:531, 2392 
0:0:48:547, 2383 
0:0:48:563, 2363 
0:0:48:578, 2337 
0:0:48:593, 2292 
0:0:48:609, 2244 
0:0:48:625, 2196 
0:0:48:641, 2148 
0:0:48:657, 2135 
0:0:48:673, 2127 
0:0:48:689, 2125 
0:0:48:705, 2127 
0:0:48:721, 2122 
0:0:48:737, 2103 
0:0:48:753, 2085 
0:0:48:769, 2058 
0:0:48:785, 2023 
0:0:48:801, 1981 
0:0:48:816, 1932 
0:0:48:831, 1898 
0:0:48:846, 1868 
0:0:48:861, 1833 
0:0:48:877, 1792 
0:0:48:893, 1765 
0:0:48:909, 1740 
0:0:48:924, 1724 
0:0:48:940, 1686 
0:0:48:956, 1667 
0:0:48:972, 1648 
0:0:48:988, 1631 
0:0:49:4, 1617 
0:0:49:20, 1586 
0:0:49:36, 1558 
0:0:49:51, 1532 
0:0:49:66, 1513 
0:0:49:82, 1515 
0:0:49:97, 1518 
0:0:49:113, 1529 
0:0:49:129, 1530 
0:0:49:145, 1545 
0:0:49:161, 1602 
0:0:49:177, 1690 
0:0:49:193, 1778 
0:0:49:208, 1960 
0:0:49:223, 2071 
0:0:49:239, 2204 
0:0:49:254, 2298 
0:0:49:270, 2353 
0:0:49:285, 2405 
0:0:49:300, 2416 
0:0:49:315, 2425 
0:0:49:331, 2424 
0:0:49:347, 2418 
0:0:49:363, 2414 
0:0:49:379, 2411 
0:0:49:394, 2410 
0:0:49:409, 2409 
0:0:49:424, 2407 
0:0:49:440, 2406 
0:0:49:456, 2395 
0:0:49:472, 2363 
0:0:49:488, 2319 
0:0:49:504, 2261 
0:0:49:519, 2225 
0:0:49:534, 2204 
0:0:49:549, 2191 
0:0:49:565, 2177 
0:0:49:581, 2172 
0:0:49:596, 1882 
0:0:49:612, 1849 
0:0:49:628, 1811 
0:0:49:644, 1780 
0:0:49:660, 1756 
0:0:49:676, 1743 
0:0:49:692, 1721 
0:0:49:708, 1703 
0:0:49:724, 1690 
0:0:49:740, 1680 
0:0:49:755, 1672 
0:0:49:770, 1654 
0:0:49:785, 1636 
0:0:49:801, 1625 
0:0:49:816, 1625 
0:0:49:832, 1629 
0:0:49:848, 1622 
0:0:49:864, 1600 
0:0:49:880, 1577 
0:0:49:896, 1567 
0:0:49:912, 1603 
0:0:49:928, 1685 
0:0:49:944, 1804 
0:0:49:959, 1948 
0:0:49:975, 2080 
0:0:49:990, 2205 
0:0:50:5, 2296 
0:0:50:20, 2345 
0:0:50:35, 2357 
0:0:50:51, 2361 
0:0:50:67, 2350 
0:0:50:83, 2324 
0:0:50:98, 2320 
0:0:50:114, 2320 
0:0:50:130, 2315 
0:0:50:146, 2299 
0:0:50:161, 2283 
0:0:50:177, 2265 
0:0:50:193, 2235 
0:0:50:209, 2198 
0:0:50:224, 2173 
0:0:50:239, 2150 
0:0:50:255, 2126 
0:0:50:271, 2114 
0:0:50:287, 2112 
0:0:50:303, 2110 
0:0:50:319, 2103 
0:0:50:335, 2097 
0:0:50:350, 2092 
0:0:50:366, 2081 
0:0:50:381, 2053 
0:0:50:396, 2032 
0:0:50:412, 1993 
0:0:50:428, 1976 
0:0:50:443, 1948 
0:0:50:458, 1919 
0:0:50:473, 1895 
0:0:50:488, 1876 
0:0:50:504, 1847 
0:0:50:520, 1816 
0:0:50:536, 1801 
0:0:50:552, 1785 
0:0:50:568, 1776 
0:0:50:583, 1761 
0:0:50:599, 1745 
0:0:50:615, 1730 
0:0:50:631, 1717 
0:0:50:647, 1697 
0:0:50:663, 1684 
0:0:50:679, 1679 
0:0:50:694, 1680 
0:0:50:709, 1664 
0:0:50:724, 1644 
0:0:50:740, 1624 
0:0:50:756, 1617 
0:0:50:772, 1647 
0:0:50:788, 1744 
0:0:50:804, 1861 
0:0:50:820, 1999 
0:0:50:836, 2062 
0:0:50:851, 2181 
0:0:50:867, 2289 
0:0:50:883, 2340 
0:0:50:899, 2361 
0:0:50:915, 2371 
0:0:50:930, 2373 
0:0:50:945, 2376 
0:0:50:961, 2367 
0:0:50:977, 2357 
0:0:50:993, 2356 
0:0:51:9, 2355 
0:0:51:25, 2357 
0:0:51:41, 2348 
0:0:51:56, 2323 
0:0:51:72, 2287 
0:0:51:88, 2245 
0:0:51:104, 2209 
0:0:51:120, 2188 
0:0:51:136, 2172 
0:0:51:152, 2154 
0:0:51:167, 2132 
0:0:51:182, 2112 
0:0:51:198, 2084 
0:0:51:214, 2045 
0:0:51:229, 2008 
0:0:51:244, 1978 
0:0:51:259, 1939 
0:0:51:275, 1912 
0:0:51:291, 1811 
0:0:51:307, 1787 
0:0:51:322, 1770 
0:0:51:337, 1754 
0:0:51:353, 1745 
0:0:51:369, 1730 
0:0:51:385, 1713 
0:0:51:400, 1692 
0:0:51:415, 1685 
0:0:51:430, 1669 
0:0:51:445, 1660 
0:0:51:460, 1654 
0:0:51:476, 1646 
0:0:51:492, 1636 
0:0:51:508, 1630 
0:0:51:524, 1620 
0:0:51:539, 1605 
0:0:51:555, 1592 
0:0:51:571, 1585 
0:0:51:587, 1578 
0:0:51:602, 1574 
0:0:51:618, 1568 
0:0:51:633, 1560 
0:0:51:648, 1552 
0:0:51:664, 1566 
0:0:51:680, 1621 
0:0:51:696, 1730 
0:0:51:712, 1867 
0:0:51:728, 2013 
0:0:51:744, 2152 
0:0:51:760, 2255 
0:0:51:775, 2328 
0:0:51:790, 2372 
0:0:51:805, 2389 
0:0:51:820, 2386 
0:0:51:836, 2383 
0:0:51:851, 2372 
0:0:51:866, 2374 
0:0:51:881, 2379 
0:0:51:897, 2382 
0:0:51:913, 2385 
0:0:51:929, 2376 
0:0:51:945, 2350 
0:0:51:961, 2311 
0:0:51:976, 2276 
0:0:51:991, 2232 
0:0:52:7, 2199 
0:0:52:23, 2174 
0:0:52:39, 2155 
0:0:52:54, 2136 
0:0:52:70, 2119 
0:0:52:86, 2099 
0:0:52:101, 2080 
0:0:52:116, 2067 
0:0:52:131, 2049 
0:0:52:146, 2036 
0:0:52:162, 2001 
0:0:52:178, 1966 
0:0:52:194, 1923 
0:0:52:210, 1886 
0:0:52:226, 1860 
0:0:52:242, 1837 
0:0:52:258, 1818 
0:0:52:274, 1805 
0:0:52:290, 1789 
0:0:52:305, 1772 
0:0:52:321, 1760 
0:0:52:336, 1750 
0:0:52:351, 1737 
0:0:52:366, 1725 
0:0:52:381, 1715 
0:0:52:397, 1702 
0:0:52:413, 1687 
0:0:52:429, 1671 
0:0:52:444, 1647 
0:0:52:460, 1627 
0:0:52:476, 1611 
0:0:52:492, 1592 
0:0:52:508, 1585 
0:0:52:524, 1580 
0:0:52:540, 1571 
0:0:52:555, 1567 
0:0:52:570, 1576 
0:0:52:586, 1608 
0:0:52:602, 1686 
0:0:52:618, 1830 
0:0:52:633, 1960 
0:0:52:648, 2081 
0:0:52:663, 2203 
0:0:52:678, 2261 
0:0:52:694, 2297 
0:0:52:710, 2306 
0:0:52:726, 2302 
0:0:52:742, 2299 
0:0:52:758, 2315 
0:0:52:773, 2335 
0:0:52:788, 2346 
0:0:52:803, 2356 
0:0:52:818, 2348 
0:0:52:834, 2330 
0:0:52:850, 2298 
0:0:52:866, 2257 
0:0:52:881, 2231 
0:0:52:897, 2203 
0:0:52:913, 2173 
0:0:52:929, 2153 
0:0:52:945, 2136 
0:0:52:960, 2112 
0:0:52:976, 2094 
0:0:52:992, 2076 
0:0:53:8, 2052 
0:0:53:24, 2044 
0:0:53:39, 2041 
0:0:53:54, 1981 
0:0:53:70, 1962 
0:0:53:85, 1946 
0:0:53:100, 1921 
0:0:53:116, 1891 
0:0:53:132, 1870 
0:0:53:148, 1857 
0:0:53:164, 1824 
0:0:53:180, 1785 
0:0:53:196, 1754 
0:0:53:212, 1734 
0:0:53:228, 1719 
0:0:53:244, 1715 
0:0:53:259, 1714 
0:0:53:274, 1708 
0:0:53:289, 1703 
0:0:53:304, 1702 
0:0:53:320, 1698 
0:0:53:336, 1691 
0:0:53:352, 1686 
0:0:53:368, 1684 
0:0:53:384, 1670 
0:0:53:400, 1651 
0:0:53:415, 1624 
0:0:53:430, 1612 
0:0:53:446, 1643 
0:0:53:462, 1719 
0:0:53:478, 1838 
0:0:53:494, 1935 
0:0:53:509, 2028 
0:0:53:524, 2136 
0:0:53:540, 2214 
0:0:53:555, 2241 
0:0:53:571, 2248 
0:0:53:587, 2238 
0:0:53:602, 2229 
0:0:53:617, 2219 
0:0:53:633, 2199 
0:0:53:649, 2193 
0:0:53:665, 2191 
0:0:53:681, 2191 
0:0:53:696, 2191 
0:0:53:712, 2195 
0:0:53:728, 2190 
0:0:53:743, 2163 
0:0:53:759, 2137 
0:0:53:774, 2115 
0:0:53:789, 2080 
0:0:53:804, 2055 
0:0:53:820, 2044 
0:0:53:837, 2031 
0:0:53:852, 2021 
0:0:53:867, 2005 
0:0:53:883, 1977 
0:0:53:899, 1949 
0:0:53:915, 1926 
0:0:53:931, 1900 
0:0:53:946, 1900 
0:0:53:962, 1896 
0:0:53:977, 1879 
0:0:53:992, 1855 
0:0:54:7, 1819 
0:0:54:23, 1790 
0:0:54:39, 1763 
0:0:54:54, 1744 
0:0:54:70, 1743 
0:0:54:86, 1751 
0:0:54:101, 1763 
0:0:54:117, 1766 
0:0:54:133, 1758 
0:0:54:149, 1754 
0:0:54:164, 1743 
0:0:54:180, 1729 
0:0:54:196, 1716 
0:0:54:211, 1700 
0:0:54:226, 1685 
0:0:54:241, 1676 
0:0:54:256, 1665 
0:0:54:272, 1653 
0:0:54:288, 1642 
0:0:54:304, 1637 
0:0:54:319, 1643 
0:0:54:335, 1671 
0:0:54:351, 1717 
0:0:54:367, 1802 
0:0:54:383, 1910 
0:0:54:398, 2025 
0:0:54:413, 2109 
0:0:54:428, 2215 
0:0:54:443, 2260 
0:0:54:458, 2273 
0:0:54:474, 2274 
0:0:54:490, 2256 
0:0:54:506, 2255 
0:0:54:522, 2254 
0:0:54:538, 2245 
0:0:54:553, 2240 
0:0:54:568, 2237 
0:0:54:583, 2230 
0:0:54:599, 2218 
0:0:54:615, 2186 
0:0:54:631, 2146 
0:0:54:647, 2107 
0:0:54:663, 2084 
0:0:54:678, 2074 
0:0:54:693, 2062 
0:0:54:709, 2045 
0:0:54:725, 2040 
0:0:54:741, 2042 
0:0:54:756, 2035 
0:0:54:772, 1919 
0:0:54:788, 1762 
0:0:54:804, 1738 
0:0:54:819, 1730 
0:0:54:834, 1729 
0:0:54:850, 1739 
0:0:54:866, 1745 
0:0:54:882, 1741 
0:0:54:898, 1727 
0:0:54:913, 1718 
0:0:54:928, 1712 
0:0:54:944, 1700 
0:0:54:959, 1685 
0:0:54:975, 1665 
0:0:54:991, 1653 
0:0:55:7, 1656 
0:0:55:23, 1658 
0:0:55:39, 1659 
0:0:55:54, 1675 
0:0:55:70, 1742 
0:0:55:86, 1841 
0:0:55:101, 1957 
0:0:55:117, 2108 
0:0:55:133, 2189 
0:0:55:149, 2293 
0:0:55:164, 2327 
0:0:55:179, 2316 
0:0:55:194, 2287 
0:0:55:210, 2266 
0:0:55:226, 2262 
0:0:55:242, 2270 
0:0:55:257, 2271 
0:0:55:273, 2268 
0:0:55:289, 2261 
0:0:55:304, 2254 
0:0:55:319, 2240 
0:0:55:334, 2226 
0:0:55:350, 2210 
0:0:55:366, 2193 
0:0:55:381, 2163 
0:0:55:396, 2128 
0:0:55:411, 2095 
0:0:55:426, 2077 
0:0:55:442, 2071 
0:0:55:457, 2061 
0:0:55:473, 2047 
0:0:55:489, 2026 
0:0:55:505, 2004 
0:0:55:521, 1978 
0:0:55:537, 1961 
0:0:55:553, 1925 
0:0:55:569, 1883 
0:0:55:585, 1834 
0:0:55:600, 1815 
0:0:55:615, 1806 
0:0:55:630, 1800 
0:0:55:646, 1795 
0:0:55:661, 1785 
0:0:55:677, 1777 
0:0:55:692, 1767 
0:0:55:708, 1752 
0:0:55:724, 1746 
0:0:55:740, 1750 
0:0:55:755, 1754 
0:0:55:770, 1754 
0:0:55:786, 1747 
0:0:55:802, 1738 
0:0:55:818, 1730 
0:0:55:834, 1731 
0:0:55:849, 1725 
0:0:55:864, 1714 
0:0:55:880, 1700 
0:0:55:896, 1695 
0:0:55:912, 1684 
0:0:55:928, 1680 
0:0:55:944, 1683 
0:0:55:960, 1690 
0:0:55:975, 1716 
0:0:55:991, 1800 
0:0:56:6, 1904 
0:0:56:21, 2027 
0:0:56:37, 2139 
0:0:56:52, 2231 
0:0:56:68, 2285 
0:0:56:83, 2302 
0:0:56:98, 2309 
0:0:56:113, 2298 
0:0:56:129, 2289 
0:0:56:144, 2290 
0:0:56:160, 2284 
0:0:56:176, 2279 
0:0:56:192, 2280 
0:0:56:207, 2287 
0:0:56:222, 2290 
0:0:56:238, 2282 
0:0:56:253, 2259 
0:0:56:269, 2242 
0:0:56:285, 2214 
0:0:56:301, 2192 
0:0:56:316, 2163 
0:0:56:331, 2143 
0:0:56:347, 2130 
0:0:56:363, 2112 
0:0:56:379, 2088 
0:0:56:395, 2070 
0:0:56:411, 2039 
0:0:56:426, 2028 
0:0:56:441, 2020 
0:0:56:456, 1991 
0:0:56:472, 1964 
0:0:56:488, 1933 
0:0:56:504, 1895 
0:0:56:519, 1849 
0:0:56:534, 1771 
0:0:56:550, 1764 
0:0:56:565, 1752 
0:0:56:581, 1742 
0:0:56:597, 1731 
0:0:56:612, 1718 
0:0:56:627, 1709 
0:0:56:643, 1695 
0:0:56:658, 1684 
0:0:56:674, 1678 
0:0:56:690, 1665 
0:0:56:706, 1653 
0:0:56:722, 1644 
0:0:56:737, 1641 
0:0:56:752, 1632 
0:0:56:768, 1616 
0:0:56:783, 1611 
0:0:56:798, 1599 
0:0:56:813, 1590 
0:0:56:829, 1588 
0:0:56:845, 1597 
0:0:56:861, 1639 
0:0:56:877, 1705 
0:0:56:893, 1796 
0:0:56:908, 1909 
0:0:56:924, 2018 
0:0:56:940, 2137 
0:0:56:955, 2176 
0:0:56:970, 2184 
0:0:56:985, 2181 
0:0:57:1, 2172 
0:0:57:16, 2167 
0:0:57:31, 2175 
0:0:57:46, 2181 
0:0:57:62, 2191 
0:0:57:78, 2204 
0:0:57:94, 2223 
0:0:57:110, 2229 
0:0:57:126, 2210 
0:0:57:142, 2189 
0:0:57:158, 2156 
0:0:57:174, 2116 
0:0:57:190, 2095 
0:0:57:206, 2066 
0:0:57:221, 2051 
0:0:57:237, 2037 
0:0:57:252, 2026 
0:0:57:267, 2005 
0:0:57:282, 1999 
0:0:57:298, 1974 
0:0:57:314, 1948 
0:0:57:330, 1915 
0:0:57:346, 1896 
0:0:57:362, 1885 
0:0:57:378, 1878 
0:0:57:394, 1859 
0:0:57:410, 1831 
0:0:57:426, 1807 
0:0:57:442, 1773 
0:0:57:458, 1752 
0:0:57:474, 1741 
0:0:57:489, 1724 
0:0:57:504, 1713 
0:0:57:520, 1700 
0:0:57:536, 1688 
0:0:57:552, 1676 
0:0:57:568, 1676 
0:0:57:584, 1683 
0:0:57:600, 1692 
0:0:57:616, 1701 
0:0:57:632, 1708 
0:0:57:648, 1698 
0:0:57:664, 1681 
0:0:57:679, 1670 
0:0:57:694, 1668 
0:0:57:710, 1669 
0:0:57:725, 1668 
0:0:57:740, 1670 
0:0:57:755, 1678 
0:0:57:771, 1678 
0:0:57:787, 1669 
0:0:57:803, 1666 
0:0:57:818, 1655 
0:0:57:833, 1659 
0:0:57:849, 1685 
0:0:57:865, 1755 
0:0:57:881, 1866 
0:0:57:897, 1985 
0:0:57:913, 2112 
0:0:57:928, 2178 
0:0:57:944, 2214 
0:0:57:959, 2220 
0:0:57:974, 2213 
0:0:57:989, 2199 
0:0:58:5, 2196 
0:0:58:21, 2198 
0:0:58:37, 2204 
0:0:58:53, 2222 
0:0:58:69, 2245 
0:0:58:85, 2255 
0:0:58:101, 2253 
0:0:58:116, 2242 
0:0:58:132, 2222 
0:0:58:148, 2205 
0:0:58:163, 2192 
0:0:58:179, 2191 
0:0:58:194, 2200 
0:0:58:209, 2199 
0:0:58:225, 2199 
0:0:58:241, 2194 
0:0:58:257, 2130 
0:0:58:273, 2119 
0:0:58:289, 2105 
0:0:58:305, 2074 
0:0:58:321, 2046 
0:0:58:337, 2020 
0:0:58:352, 1996 
0:0:58:367, 1970 
0:0:58:382, 1947 
0:0:58:398, 1907 
0:0:58:414, 1879 
0:0:58:429, 1845 
0:0:58:444, 1814 
0:0:58:460, 1793 
0:0:58:476, 1779 
0:0:58:492, 1771 
0:0:58:508, 1758 
0:0:58:524, 1741 
0:0:58:539, 1740 
0:0:58:555, 1737 
0:0:58:571, 1732 
0:0:58:587, 1721 
0:0:58:603, 1707 
0:0:58:619, 1691 
0:0:58:635, 1697 
0:0:58:650, 1739 
0:0:58:665, 1819 
0:0:58:680, 1935 
0:0:58:696, 2093 
0:0:58:712, 2201 
0:0:58:728, 2308 
0:0:58:744, 2359 
0:0:58:760, 2381 
0:0:58:776, 2379 
0:0:58:791, 2368 
0:0:58:807, 2357 
0:0:58:823, 2350 
0:0:58:838, 2340 
0:0:58:854, 2342 
0:0:58:869, 2347 
0:0:58:884, 2356 
0:0:58:900, 2366 
0:0:58:915, 2373 
0:0:58:930, 2389 
0:0:58:946, 2390 
0:0:58:961, 2373 
0:0:58:977, 2353 
0:0:58:993, 2323 
0:0:59:9, 2276 
0:0:59:25, 2238 
0:0:59:40, 2211 
0:0:59:56, 2201 
0:0:59:72, 2194 
0:0:59:88, 2179 
0:0:59:104, 2153 
0:0:59:120, 2111 
0:0:59:135, 2081 
0:0:59:150, 2044 
0:0:59:165, 2028 
0:0:59:181, 1992 
0:0:59:197, 1957 
0:0:59:213, 1915 
0:0:59:229, 1874 
0:0:59:245, 1854 
0:0:59:261, 1841 
0:0:59:277, 1828 
0:0:59:293, 1810 
0:0:59:309, 1797 
0:0:59:324, 1788 
0:0:59:340, 1776 
0:0:59:355, 1757 
0:0:59:370, 1748 
0:0:59:385, 1735 
0:0:59:400, 1726 
0:0:59:415, 1726 
0:0:59:431, 1722 
0:0:59:447, 1712 
0:0:59:463, 1704 
0:0:59:479, 1695 
0:0:59:495, 1682 
0:0:59:511, 1690 
0:0:59:527, 1732 
0:0:59:542, 1791 
0:0:59:557, 1875 
0:0:59:573, 1983 
0:0:59:589, 2058 
0:0:59:604, 2108 
0:0:59:619, 2142 
0:0:59:634, 2150 
0:0:59:650, 2151 
0:0:59:666, 2145 
0:0:59:682, 2137 
0:0:59:698, 2120 
0:0:59:714, 2098 
0:0:59:730, 2085 
0:0:59:746, 2077 
0:0:59:762, 2069 
0:0:59:778, 2062 
0:0:59:794, 2044 
0:0:59:810, 2029 
0:0:59:826, 2027 
0:0:59:841, 2023 
0:0:59:856, 2018 
0:0:59:872, 2014 
0:0:59:888, 2004 
0:0:59:904, 1992 
0:0:59:920, 1977 
0:0:59:936, 1964 
0:0:59:952, 1946 
0:0:59:968, 1930 
0:0:59:984, 1834 
0:1:0:0, 1834 
0:1:0:16, 1815 
0:1:0:32, 1784 
0:1:0:48, 1760 
0:1:0:63, 1731 
0:1:0:78, 1718 
0:1:0:93, 1723 
0:1:0:109, 1722 
0:1:0:125, 1713 
0:1:0:141, 1702 
0:1:0:157, 1685 
0:1:0:173, 1675 
0:1:0:189, 1685 
0:1:0:205, 1723 
0:1:0:220, 1784 
0:1:0:236, 1918 
0:1:0:251, 2006 
0:1:0:267, 2089 
0:1:0:282, 2164 
0:1:0:298, 2247 
0:1:0:313, 2280 
0:1:0:328, 2295 
0:1:0:344, 2279 
0:1:0:360, 2254 
0:1:0:376, 2216 
0:1:0:392, 2170 
0:1:0:408, 2137 
0:1:0:423, 2113 
0:1:0:439, 2103 
0:1:0:455, 2108 
0:1:0:470, 2108 
0:1:0:485, 2103 
0:1:0:501, 2087 
0:1:0:516, 2061 
0:1:0:532, 2034 
0:1:0:547, 2012 
0:1:0:562, 1992 
0:1:0:578, 1989 
0:1:0:594, 1982 
0:1:0:609, 1959 
0:1:0:624, 1934 
0:1:0:640, 1903 
0:1:0:655, 1883 
0:1:0:671, 1873 
0:1:0:687, 1846 
0:1:0:703, 1818 
0:1:0:719, 1787 
0:1:0:735, 1752 
0:1:0:751, 1730 
0:1:0:767, 1706 
0:1:0:782, 1686 
0:1:0:797, 1680 
0:1:0:812, 1665 
0:1:0:827, 1657 
0:1:0:843, 1652 
0:1:0:858, 1644 
0:1:0:874, 1641 
0:1:0:890, 1642 
0:1:0:906, 1635 
0:1:0:922, 1639 
0:1:0:938, 1667 
0:1:0:954, 1730 
0:1:0:970, 1822 
0:1:0:985, 1921 
0:1:1:1, 2016 
0:1:1:16, 2099 
0:1:1:31, 2114 
0:1:1:46, 2105 
0:1:1:61, 2080 
0:1:1:77, 2066 
0:1:1:93, 2058 
0:1:1:108, 2051 
0:1:1:124, 2052 
0:1:1:140, 2060 
0:1:1:156, 2075 
0:1:1:171, 2075 
0:1:1:187, 2054 
0:1:1:203, 2028 
0:1:1:219, 1997 
0:1:1:235, 1974 
0:1:1:250, 1970 
0:1:1:265, 1972 
0:1:1:281, 1971 
0:1:1:297, 1970 
0:1:1:313, 1978 
0:1:1:328, 1984 
0:1:1:343, 1982 
0:1:1:359, 1975 
0:1:1:375, 1959 
0:1:1:391, 1931 
0:1:1:407, 1902 
0:1:1:423, 1884 
0:1:1:439, 1857 
0:1:1:454, 1837 
0:1:1:469, 1821 
0:1:1:484, 1803 
0:1:1:499, 1773 
0:1:1:515, 1751 
0:1:1:531, 1731 
0:1:1:547, 1701 
0:1:1:563, 1675 
0:1:1:579, 1660 
0:1:1:595, 1665 
0:1:1:611, 1668 
0:1:1:627, 1669 
0:1:1:643, 1679 
0:1:1:659, 1765 
0:1:1:674, 1924 
0:1:1:689, 1976 
0:1:1:705, 2044 
0:1:1:720, 2081 
0:1:1:735, 2083 
0:1:1:751, 2071 
0:1:1:766, 2069 
0:1:1:781, 2059 
0:1:1:797, 2058 
0:1:1:812, 2066 
0:1:1:828, 2071 
0:1:1:844, 2084 
0:1:1:860, 2088 
0:1:1:876, 2071 
0:1:1:892, 2054 
0:1:1:908, 2022 
0:1:1:924, 1989 
0:1:1:940, 1971 
0:1:1:955, 1957 
0:1:1:971, 1949 
0:1:1:987, 1948 
0:1:2:3, 1950 
0:1:2:19, 1955 
0:1:2:34, 1959 
0:1:2:50, 1956 
0:1:2:65, 1951 
0:1:2:80, 1947 
0:1:2:96, 1941 
0:1:2:112, 1926 
0:1:2:128, 1898 
0:1:2:144, 1862 
0:1:2:160, 1823 
0:1:2:176, 1809 
0:1:2:191, 1798 
0:1:2:206, 1788 
0:1:2:222, 1785 
0:1:2:238, 1788 
0:1:2:254, 1790 
0:1:2:270, 1798 
0:1:2:286, 1805 
0:1:2:302, 1806 
0:1:2:317, 1802 
0:1:2:333, 1792 
0:1:2:349, 1776 
0:1:2:364, 1762 
0:1:2:380, 1755 
0:1:2:396, 1757 
0:1:2:412, 1768 
0:1:2:427, 1799 
0:1:2:442, 1868 
0:1:2:457, 1950 
0:1:2:473, 2028 
0:1:2:489, 2097 
0:1:2:505, 2154 
0:1:2:521, 2180 
0:1:2:536, 2173 
0:1:2:551, 2148 
0:1:2:567, 2128 
0:1:2:583, 2113 
0:1:2:599, 2116 
0:1:2:614, 2115 
0:1:2:630, 2124 
0:1:2:646, 2117 
0:1:2:661, 2104 
0:1:2:676, 2091 
0:1:2:691, 2079 
0:1:2:706, 2052 
0:1:2:722, 2032 
0:1:2:738, 2013 
0:1:2:754, 1997 
0:1:2:770, 1990 
0:1:2:786, 1991 
0:1:2:802, 1989 
0:1:2:818, 1989 
0:1:2:834, 1980 
0:1:2:850, 1963 
0:1:2:865, 1942 
0:1:2:881, 1913 
0:1:2:896, 1900 
0:1:2:911, 1890 
0:1:2:927, 1880 
0:1:2:943, 1871 
0:1:2:959, 1861 
0:1:2:975, 1857 
0:1:2:990, 1850 
0:1:3:5, 1840 
0:1:3:20, 1819 
0:1:3:36, 1810 
0:1:3:51, 1791 
0:1:3:66, 1779 
0:1:3:82, 1771 
0:1:3:98, 1754 
0:1:3:114, 1744 
0:1:3:129, 1734 
0:1:3:144, 1718 
0:1:3:160, 1700 
0:1:3:176, 1672 
0:1:3:192, 1654 
0:1:3:208, 1651 
0:1:3:224, 1670 
0:1:3:240, 1735 
0:1:3:255, 1804 
0:1:3:271, 1887 
0:1:3:287, 1980 
0:1:3:302, 2068 
0:1:3:318, 2135 
0:1:3:334, 2193 
0:1:3:350, 2223 
0:1:3:366, 2243 
0:1:3:381, 2248 
0:1:3:396, 2233 
0:1:3:412, 2159 
0:1:3:428, 2166 
0:1:3:444, 2164 
0:1:3:459, 2155 
0:1:3:475, 2145 
0:1:3:491, 2117 
0:1:3:507, 2084 
0:1:3:523, 2063 
0:1:3:538, 2055 
0:1:3:554, 2045 
0:1:3:570, 2033 
0:1:3:585, 2047 
0:1:3:600, 2067 
0:1:3:615, 2075 
0:1:3:631, 2085 
0:1:3:647, 2083 
0:1:3:663, 2066 
0:1:3:679, 2051 
0:1:3:695, 2029 
0:1:3:711, 2015 
0:1:3:726, 1995 
0:1:3:741, 1979 
0:1:3:756, 1954 
0:1:3:772, 1934 
0:1:3:788, 1909 
0:1:3:804, 1890 
0:1:3:820, 1858 
0:1:3:835, 1844 
0:1:3:850, 1842 
0:1:3:866, 1840 
0:1:3:882, 1837 
0:1:3:898, 1830 
0:1:3:914, 1811 
0:1:3:930, 1796 
0:1:3:946, 1788 
0:1:3:961, 1787 
0:1:3:976, 1785 
0:1:3:992, 1784 
0:1:4:8, 1783 
0:1:4:24, 1771 
0:1:4:40, 1737 
0:1:4:56, 1727 
0:1:4:71, 1709 
0:1:4:86, 1700 
0:1:4:102, 1701 
0:1:4:118, 1721 
0:1:4:134, 1803 
0:1:4:149, 1871 
0:1:4:166, 1967 
0:1:4:182, 2060 
0:1:4:198, 2132 
0:1:4:214, 2173 
0:1:4:230, 2191 
0:1:4:245, 2186 
0:1:4:260, 2174 
0:1:4:276, 2155 
0:1:4:292, 2145 
0:1:4:307, 2145 
0:1:4:322, 2145 
0:1:4:338, 2154 
0:1:4:354, 2169 
0:1:4:370, 2178 
0:1:4:385, 2173 
0:1:4:401, 2149 
0:1:4:417, 2130 
0:1:4:433, 2112 
0:1:4:448, 2100 
0:1:4:463, 2084 
0:1:4:479, 2073 
0:1:4:495, 2066 
0:1:4:510, 2065 
0:1:4:525, 2083 
0:1:4:540, 2103 
0:1:4:555, 2103 
0:1:4:571, 2086 
0:1:4:587, 2063 
0:1:4:602, 2032 
0:1:4:617, 2008 
0:1:4:633, 1986 
0:1:4:649, 1959 
0:1:4:665, 1933 
0:1:4:681, 1922 
0:1:4:697, 1919 
0:1:4:712, 1912 
0:1:4:727, 1912 
0:1:4:743, 1904 
0:1:4:758, 1881 
0:1:4:773, 1858 
0:1:4:788, 1835 
0:1:4:803, 1819 
0:1:4:818, 1812 
0:1:4:834, 1801 
0:1:4:850, 1808 
0:1:4:866, 1820 
0:1:4:882, 1824 
0:1:4:898, 1812 
0:1:4:914, 1791 
0:1:4:930, 1770 
0:1:4:945, 1756 
0:1:4:961, 1751 
0:1:4:976, 1743 
0:1:4:992, 1739 
0:1:5:7, 1729 
0:1:5:22, 1711 
0:1:5:37, 1702 
0:1:5:53, 1706 
0:1:5:69, 1731 
0:1:5:85, 1816 
0:1:5:100, 2286 
0:1:5:116, 2317 
0:1:5:131, 2329 
0:1:5:147, 2318 
0:1:5:163, 2312 
0:1:5:179, 2304 
0:1:5:194, 2291 
0:1:5:209, 2285 
0:1:5:225, 2290 
0:1:5:240, 2298 
0:1:5:255, 2302 
0:1:5:270, 2309 
0:1:5:286, 2308 
0:1:5:302, 2298 
0:1:5:318, 2287 
0:1:5:334, 2268 
0:1:5:349, 2244 
0:1:5:365, 2218 
0:1:5:381, 2189 
0:1:5:397, 2172 
0:1:5:413, 2165 
0:1:5:428, 2162 
0:1:5:444, 2160 
0:1:5:459, 2153 
0:1:5:474, 2141 
0:1:5:489, 2127 
0:1:5:504, 2111 
0:1:5:520, 2096 
0:1:5:536, 2091 
0:1:5:553, 2078 
0:1:5:569, 2066 
0:1:5:585, 2053 
0:1:5:601, 2031 
0:1:5:617, 1997 
0:1:5:633, 1970 
0:1:5:649, 1945 
0:1:5:664, 1933 
0:1:5:680, 1930 
0:1:5:696, 1928 
0:1:5:711, 1927 
0:1:5:726, 1929 
0:1:5:741, 1920 
0:1:5:757, 1900 
0:1:5:773, 1881 
0:1:5:789, 1854 
0:1:5:805, 1823 
0:1:5:821, 1802 
0:1:5:837, 1779 
0:1:5:852, 1775 
0:1:5:868, 1775 
0:1:5:884, 1775 
0:1:5:899, 1775 
0:1:5:914, 1775 
0:1:5:929, 1765 
0:1:5:944, 1752 
0:1:5:960, 1751 
0:1:5:976, 1773 
0:1:5:992, 1836 
0:1:6:8, 1928 
0:1:6:24, 2048 
0:1:6:40, 2171 
0:1:6:55, 2298 
0:1:6:71, 2353 
0:1:6:87, 2373 
0:1:6:103, 2366 
0:1:6:119, 2351 
0:1:6:135, 2336 
0:1:6:151, 2341 
0:1:6:167, 2354 
0:1:6:182, 2365 
0:1:6:197, 2403 
0:1:6:212, 2426 
0:1:6:228, 2438 
0:1:6:244, 2436 
0:1:6:259, 2421 
0:1:6:275, 2399 
0:1:6:291, 2360 
0:1:6:307, 2329 
0:1:6:323, 2314 
0:1:6:338, 2302 
0:1:6:353, 2288 
0:1:6:369, 2279 
0:1:6:385, 2275 
0:1:6:401, 2268 
0:1:6:416, 2254 
0:1:6:431, 2241 
0:1:6:447, 2212 
0:1:6:463, 2181 
0:1:6:479, 2148 
0:1:6:495, 2120 
0:1:6:511, 2088 
0:1:6:527, 2060 
0:1:6:543, 2036 
0:1:6:559, 2019 
0:1:6:575, 2011 
0:1:6:591, 2005 
0:1:6:607, 1987 
0:1:6:623, 1968 
0:1:6:639, 1963 
0:1:6:655, 1960 
0:1:6:670, 1939 
0:1:6:685, 1925 
0:1:6:701, 1905 
0:1:6:717, 1888 
0:1:6:733, 1876 
0:1:6:749, 1864 
0:1:6:764, 1852 
0:1:6:780, 1839 
0:1:6:796, 1798 
0:1:6:811, 1786 
0:1:6:827, 1775 
0:1:6:843, 1771 
0:1:6:859, 1775 
0:1:6:875, 1814 
0:1:6:890, 1866 
0:1:6:905, 1936 
0:1:6:920, 2018 
0:1:6:936, 2128 
0:1:6:952, 2201 
0:1:6:967, 2293 
0:1:6:982, 2342 
0:1:6:998, 2351 
0:1:7:14, 2348 
0:1:7:30, 2345 
0:1:7:45, 2341 
0:1:7:61, 2339 
0:1:7:77, 2335 
0:1:7:93, 2346 
0:1:7:109, 2346 
0:1:7:124, 2344 
0:1:7:139, 2340 
0:1:7:154, 2315 
0:1:7:170, 2289 
0:1:7:186, 2260 
0:1:7:202, 2234 
0:1:7:218, 2213 
0:1:7:234, 2188 
0:1:7:250, 2179 
0:1:7:266, 2174 
0:1:7:281, 2177 
0:1:7:297, 2183 
0:1:7:313, 2181 
0:1:7:329, 2173 
0:1:7:345, 2160 
0:1:7:360, 2141 
0:1:7:375, 2107 
0:1:7:391, 2054 
0:1:7:406, 2021 
0:1:7:422, 2001 
0:1:7:438, 1973 
0:1:7:454, 1963 
0:1:7:469, 1952 
0:1:7:485, 1946 
0:1:7:500, 1938 
0:1:7:516, 1909 
0:1:7:531, 1890 
0:1:7:546, 1870 
0:1:7:561, 1854 
0:1:7:577, 1833 
0:1:7:592, 1814 
0:1:7:607, 1800 
0:1:7:623, 1782 
0:1:7:639, 1763 
0:1:7:655, 1743 
0:1:7:671, 1739 
0:1:7:686, 1732 
0:1:7:701, 1733 
0:1:7:717, 1762 
0:1:7:732, 1852 
0:1:7:747, 1925 
0:1:7:762, 2044 
0:1:7:778, 2162 
0:1:7:793, 2254 
0:1:7:808, 2330 
0:1:7:823, 2361 
0:1:7:838, 2368 
0:1:7:854, 2362 
0:1:7:870, 2347 
0:1:7:885, 2328 
0:1:7:900, 2304 
0:1:7:916, 2286 
0:1:7:932, 2282 
0:1:7:948, 2278 
0:1:7:963, 2266 
0:1:7:979, 2247 
0:1:7:995, 2215 
0:1:8:11, 2178 
0:1:8:27, 2150 
0:1:8:43, 2138 
0:1:8:59, 2132 
0:1:8:74, 2152 
0:1:8:90, 2183 
0:1:8:106, 2200 
0:1:8:121, 2211 
0:1:8:136, 2209 
0:1:8:152, 2187 
0:1:8:168, 2145 
0:1:8:184, 2109 
0:1:8:200, 2063 
0:1:8:216, 2010 
0:1:8:232, 1968 
0:1:8:248, 1944 
0:1:8:263, 1927 
0:1:8:279, 1910 
0:1:8:294, 1901 
0:1:8:309, 1892 
0:1:8:324, 1875 
0:1:8:340, 1862 
0:1:8:355, 1845 
0:1:8:371, 1824 
0:1:8:387, 1797 
0:1:8:403, 1767 
0:1:8:419, 1738 
0:1:8:435, 1692 
0:1:8:451, 1674 
0:1:8:466, 1662 
0:1:8:482, 1647 
0:1:8:498, 1627 
0:1:8:514, 1603 
0:1:8:529, 1592 
0:1:8:544, 1586 
0:1:8:560, 1596 
0:1:8:576, 1615 
0:1:8:592, 1638 
0:1:8:607, 1682 
0:1:8:622, 1758 
0:1:8:638, 1903 
0:1:8:653, 1999 
0:1:8:669, 2125 
0:1:8:685, 2230 
0:1:8:701, 2309 
0:1:8:717, 2326 
0:1:8:733, 2328 
0:1:8:749, 2318 
0:1:8:765, 2303 
0:1:8:780, 2290 
0:1:8:796, 2289 
0:1:8:812, 2308 
0:1:8:828, 2313 
0:1:8:843, 2313 
0:1:8:858, 2304 
0:1:8:874, 2272 
0:1:8:890, 2230 
0:1:8:905, 2196 
0:1:8:920, 2175 
0:1:8:936, 2145 
0:1:8:952, 2117 
0:1:8:968, 2099 
0:1:8:984, 2081 
0:1:8:999, 2087 
0:1:9:14, 2103 
0:1:9:30, 2106 
0:1:9:46, 2099 
0:1:9:61, 2086 
0:1:9:76, 2049 
0:1:9:91, 2011 
0:1:9:107, 1975 
0:1:9:123, 1948 
0:1:9:139, 1925 
0:1:9:155, 1896 
0:1:9:171, 1868 
0:1:9:186, 1851 
0:1:9:202, 1840 
0:1:9:218, 1829 
0:1:9:233, 1812 
0:1:9:248, 1798 
0:1:9:263, 1786 
0:1:9:278, 1777 
0:1:9:294, 1762 
0:1:9:310, 1753 
0:1:9:326, 1747 
0:1:9:342, 1733 
0:1:9:358, 1712 
0:1:9:374, 1681 
0:1:9:390, 1649 
0:1:9:406, 1619 
0:1:9:422, 1603 
0:1:9:438, 1580 
0:1:9:453, 1553 
0:1:9:468, 1539 
0:1:9:483, 1528 
0:1:9:499, 1541 
0:1:9:515, 1608 
0:1:9:531, 1700 
0:1:9:547, 1858 
0:1:9:563, 1990 
0:1:9:579, 2113 
0:1:9:595, 2234 
0:1:9:611, 2279 
0:1:9:627, 2288 
0:1:9:643, 2280 
0:1:9:659, 2271 
0:1:9:675, 2264 
0:1:9:690, 2270 
0:1:9:705, 2282 
0:1:9:720, 2302 
0:1:9:736, 2315 
0:1:9:752, 2317 
0:1:9:768, 2312 
0:1:9:784, 2297 
0:1:9:800, 2250 
0:1:9:816, 2228 
0:1:9:832, 2196 
0:1:9:848, 2163 
0:1:9:863, 2136 
0:1:9:879, 2109 
0:1:9:895, 2083 
0:1:9:911, 2061 
0:1:9:926, 2041 
0:1:9:941, 2014 
0:1:9:957, 1996 
0:1:9:972, 1981 
0:1:9:988, 1964 
0:1:10:4, 1942 
0:1:10:20, 1919 
0:1:10:35, 1892 
0:1:10:51, 1871 
0:1:10:66, 1851 
0:1:10:82, 1822 
0:1:10:98, 1801 
0:1:10:113, 1768 
0:1:10:129, 1741 
0:1:10:145, 1729 
0:1:10:160, 1715 
0:1:10:175, 1703 
0:1:10:190, 1689 
0:1:10:206, 1675 
0:1:10:222, 1575 
0:1:10:238, 1571 
0:1:10:254, 1580 
0:1:10:270, 1602 
0:1:10:286, 1659 
0:1:10:302, 1725 
0:1:10:318, 1835 
0:1:10:334, 1927 
0:1:10:349, 2048 
0:1:10:365, 2118 
0:1:10:381, 2220 
0:1:10:397, 2259 
0:1:10:412, 2279 
0:1:10:427, 2286 
0:1:10:442, 2273 
0:1:10:457, 2253 
0:1:10:473, 2240 
0:1:10:488, 2224 
0:1:10:504, 2213 
0:1:10:520, 2207 
0:1:10:536, 2187 
0:1:10:551, 2163 
0:1:10:567, 2129 
0:1:10:583, 2099 
0:1:10:599, 2080 
0:1:10:615, 2065 
0:1:10:631, 2059 
0:1:10:646, 2062 
0:1:10:661, 2062 
0:1:10:677, 2051 
0:1:10:693, 2046 
0:1:10:709, 2031 
0:1:10:724, 2011 
0:1:10:739, 1989 
0:1:10:755, 1952 
0:1:10:771, 1900 
0:1:10:787, 1871 
0:1:10:803, 1846 
0:1:10:819, 1816 
0:1:10:835, 1790 
0:1:10:851, 1779 
0:1:10:867, 1771 
0:1:10:882, 1754 
0:1:10:897, 1742 
0:1:10:913, 1742 
0:1:10:929, 1747 
0:1:10:945, 1756 
0:1:10:961, 1772 
0:1:10:977, 1781 
0:1:10:993, 1787 
0:1:11:8, 1783 
0:1:11:24, 1770 
0:1:11:40, 1742 
0:1:11:56, 1727 
0:1:11:71, 1731 
0:1:11:87, 1753 
0:1:11:103, 1799 
0:1:11:118, 1860 
0:1:11:133, 1914 
0:1:11:149, 2000 
0:1:11:165, 2097 
0:1:11:181, 2166 
0:1:11:197, 2190 
0:1:11:213, 2193 
0:1:11:229, 2186 
0:1:11:245, 2171 
0:1:11:260, 2162 
0:1:11:276, 2160 
0:1:11:292, 2155 
0:1:11:307, 2157 
0:1:11:322, 2158 
0:1:11:338, 2163 
0:1:11:353, 2166 
0:1:11:369, 2160 
0:1:11:384, 2144 
0:1:11:400, 2130 
0:1:11:416, 2114 
0:1:11:431, 2101 
0:1:11:447, 2083 
0:1:11:462, 2065 
0:1:11:478, 2048 
0:1:11:494, 2033 
0:1:11:510, 2012 
0:1:11:525, 2009 
0:1:11:540, 2001 
0:1:11:556, 1983 
0:1:11:571, 1960 
0:1:11:586, 1912 
0:1:11:601, 1871 
0:1:11:617, 1825 
0:1:11:633, 1792 
0:1:11:649, 1780 
0:1:11:666, 1779 
0:1:11:682, 1782 
0:1:11:697, 1787 
0:1:11:712, 1788 
0:1:11:728, 1781 
0:1:11:743, 1771 
0:1:11:759, 1757 
0:1:11:775, 1743 
0:1:11:791, 1731 
0:1:11:807, 1726 
0:1:11:822, 1724 
0:1:11:837, 1724 
0:1:11:853, 1724 
0:1:11:868, 1721 
0:1:11:884, 1710 
0:1:11:900, 1705 
0:1:11:916, 1703 
0:1:11:932, 1692 
0:1:11:948, 1683 
0:1:11:963, 1682 
0:1:11:979, 1705 
0:1:11:995, 1760 
0:1:12:11, 1855 
0:1:12:27, 1979 
0:1:12:42, 2103 
0:1:12:58, 2191 
0:1:12:73, 2248 
0:1:12:88, 2269 
0:1:12:104, 2276 
0:1:12:120, 2265 
0:1:12:136, 2262 
0:1:12:151, 2271 
0:1:12:166, 2293 
0:1:12:182, 2303 
0:1:12:198, 2309 
0:1:12:214, 2298 
0:1:12:230, 2276 
0:1:12:246, 2248 
0:1:12:262, 2212 
0:1:12:278, 2176 
0:1:12:293, 2140 
0:1:12:308, 2108 
0:1:12:324, 2081 
0:1:12:340, 2068 
0:1:12:355, 2057 
0:1:12:371, 2048 
0:1:12:387, 2034 
0:1:12:403, 2020 
0:1:12:418, 2000 
0:1:12:434, 1989 
0:1:12:450, 1978 
0:1:12:466, 1975 
0:1:12:481, 1971 
0:1:12:497, 1949 
0:1:12:513, 1920 
0:1:12:528, 1883 
0:1:12:543, 1851 
0:1:12:559, 1832 
0:1:12:574, 1800 
0:1:12:589, 1777 
0:1:12:604, 1773 
0:1:12:620, 1761 
0:1:12:636, 1752 
0:1:12:652, 1746 
0:1:12:667, 1736 
0:1:12:682, 1720 
0:1:12:697, 1703 
0:1:12:713, 1695 
0:1:12:729, 1692 
0:1:12:745, 1681 
0:1:12:761, 1672 
0:1:12:776, 1665 
0:1:12:791, 1658 
0:1:12:807, 1653 
0:1:12:823, 1637 
0:1:12:839, 1645 
0:1:12:854, 1668 
0:1:12:869, 1720 
0:1:12:885, 1789 
0:1:12:901, 1878 
0:1:12:916, 1980 
0:1:12:932, 2086 
0:1:12:949, 2158 
0:1:12:964, 2200 
0:1:12:980, 2240 
0:1:12:995, 2255 
0:1:13:10, 2260 
0:1:13:26, 2257 
0:1:13:42, 2258 
0:1:13:57, 2271 
0:1:13:73, 2288 
0:1:13:89, 2309 
0:1:13:105, 2330 
0:1:13:121, 2353 
0:1:13:137, 2350 
0:1:13:153, 2327 
0:1:13:169, 2299 
0:1:13:185, 2247 
0:1:13:200, 2200 
0:1:13:216, 2169 
0:1:13:231, 2149 
0:1:13:246, 2145 
0:1:13:261, 2152 
0:1:13:277, 2156 
0:1:13:293, 2146 
0:1:13:309, 2136 
0:1:13:325, 2118 
0:1:13:341, 2085 
0:1:13:357, 2060 
0:1:13:373, 2027 
0:1:13:389, 1973 
0:1:13:405, 1925 
0:1:13:421, 1901 
0:1:13:436, 1871 
0:1:13:452, 1840 
0:1:13:467, 1822 
0:1:13:482, 1800 
0:1:13:497, 1785 
0:1:13:513, 1771 
0:1:13:529, 1752 
0:1:13:545, 1741 
0:1:13:561, 1728 
0:1:13:577, 1708 
0:1:13:592, 1690 
0:1:13:607, 1683 
0:1:13:622, 1665 
0:1:13:637, 1650 
0:1:13:653, 1635 
0:1:13:668, 1626 
0:1:13:683, 1709 
0:1:13:698, 1813 
0:1:13:713, 1931 
0:1:13:729, 2051 
0:1:13:744, 2151 
0:1:13:761, 2240 
0:1:13:777, 2278 
0:1:13:793, 2288 
0:1:13:809, 2295 
0:1:13:825, 2315 
0:1:13:841, 2335 
0:1:13:856, 2345 
0:1:13:872, 2348 
0:1:13:888, 2356 
0:1:13:904, 2357 
0:1:13:920, 2337 
0:1:13:935, 2320 
0:1:13:950, 2295 
0:1:13:965, 2262 
0:1:13:981, 2221 
0:1:13:997, 2183 
0:1:14:13, 2163 
0:1:14:29, 2149 
0:1:14:45, 2119 
0:1:14:60, 2104 
0:1:14:76, 2088 
0:1:14:92, 2060 
0:1:14:108, 2035 
0:1:14:123, 2006 
0:1:14:139, 1971 
0:1:14:155, 1938 
0:1:14:170, 1889 
0:1:14:185, 1838 
0:1:14:201, 1808 
0:1:14:217, 1786 
0:1:14:233, 1770 
0:1:14:249, 1762 
0:1:14:264, 1760 
0:1:14:280, 1757 
0:1:14:296, 1761 
0:1:14:312, 1762 
0:1:14:328, 1755 
0:1:14:344, 1741 
0:1:14:360, 1727 
0:1:14:376, 1707 
0:1:14:392, 1691 
0:1:14:407, 1682 
0:1:14:422, 1675 
0:1:14:438, 1674 
0:1:14:455, 1676 
0:1:14:471, 1684 
0:1:14:487, 1719 
0:1:14:503, 1825 
0:1:14:519, 1942 
0:1:14:534, 2067 
0:1:14:549, 2189 
0:1:14:564, 2295 
0:1:14:580, 2346 
0:1:14:595, 2360 
0:1:14:611, 2355 
0:1:14:626, 2343 
0:1:14:641, 2333 
0:1:14:657, 2316 
0:1:14:672, 2287 
0:1:14:687, 2248 
0:1:14:702, 2224 
0:1:14:718, 2197 
0:1:14:733, 2188 
0:1:14:749, 2179 
0:1:14:765, 2160 
0:1:14:781, 2145 
0:1:14:797, 2122 
0:1:14:813, 2109 
0:1:14:829, 2086 
0:1:14:845, 2064 
0:1:14:861, 2048 
0:1:14:876, 2044 
0:1:14:891, 2054 
0:1:14:907, 2063 
0:1:14:922, 2063 
0:1:14:937, 2062 
0:1:14:953, 2039 
0:1:14:968, 2010 
0:1:14:984, 1979 
0:1:15:0, 1951 
0:1:15:16, 1933 
0:1:15:32, 1915 
0:1:15:47, 1890 
0:1:15:63, 1872 
0:1:15:79, 1855 
0:1:15:94, 1838 
0:1:15:109, 1829 
0:1:15:124, 1813 
0:1:15:139, 1791 
0:1:15:154, 1758 
0:1:15:170, 1715 
0:1:15:185, 1668 
0:1:15:201, 1642 
0:1:15:216, 1632 
0:1:15:231, 1631 
0:1:15:247, 1646 
0:1:15:262, 1665 
0:1:15:278, 1683 
0:1:15:294, 1698 
0:1:15:310, 1705 
0:1:15:326, 1701 
0:1:15:341, 1697 
0:1:15:357, 1696 
0:1:15:373, 1697 
0:1:15:389, 1719 
0:1:15:404, 1780 
0:1:15:419, 2210 
0:1:15:435, 2256 
0:1:15:450, 2287 
0:1:15:465, 2293 
0:1:15:480, 2286 
0:1:15:495, 2275 
0:1:15:510, 2261 
0:1:15:526, 2267 
0:1:15:542, 2281 
0:1:15:557, 2292 
0:1:15:572, 2308 
0:1:15:587, 2333 
0:1:15:602, 2348 
0:1:15:618, 2343 
0:1:15:634, 2324 
0:1:15:649, 2291 
0:1:15:665, 2247 
0:1:15:681, 2195 
0:1:15:697, 2138 
0:1:15:713, 2083 
0:1:15:729, 2033 
0:1:15:745, 2009 
0:1:15:760, 1998 
0:1:15:776, 1984 
0:1:15:792, 1980 
0:1:15:807, 1976 
0:1:15:822, 1979 
0:1:15:838, 1984 
0:1:15:854, 1971 
0:1:15:870, 1953 
0:1:15:886, 1924 
0:1:15:902, 1897 
0:1:15:918, 1876 
0:1:15:934, 1859 
0:1:15:950, 1844 
0:1:15:965, 1832 
0:1:15:981, 1816 
0:1:15:997, 1803 
0:1:16:13, 1780 
0:1:16:28, 1760 
0:1:16:43, 1743 
0:1:16:59, 1723 
0:1:16:75, 1706 
0:1:16:91, 1661 
0:1:16:107, 1634 
0:1:16:123, 1629 
0:1:16:139, 1624 
0:1:16:155, 1619 
0:1:16:170, 1613 
0:1:16:186, 1598 
0:1:16:202, 1601 
0:1:16:218, 1624 
0:1:16:234, 1665 
0:1:16:250, 1727 
0:1:16:265, 1794 
0:1:16:280, 1849 
0:1:16:295, 1942 
0:1:16:311, 2039 
0:1:16:327, 2149 
0:1:16:343, 2230 
0:1:16:359, 2282 
0:1:16:375, 2300 
0:1:16:390, 2299 
0:1:16:406, 2297 
0:1:16:422, 2293 
0:1:16:438, 2287 
0:1:16:454, 2286 
0:1:16:469, 2277 
0:1:16:485, 2272 
0:1:16:501, 2271 
0:1:16:516, 2264 
0:1:16:532, 2245 
0:1:16:547, 2228 
0:1:16:563, 2197 
0:1:16:579, 2158 
0:1:16:595, 2118 
0:1:16:611, 2097 
0:1:16:626, 2089 
0:1:16:642, 2087 
0:1:16:658, 2103 
0:1:16:674, 2118 
0:1:16:690, 2123 
0:1:16:706, 2116 
0:1:16:722, 2098 
0:1:16:738, 2081 
0:1:16:753, 2060 
0:1:16:768, 2033 
0:1:16:784, 1997 
0:1:16:800, 1967 
0:1:16:816, 1924 
0:1:16:832, 1888 
0:1:16:848, 1850 
0:1:16:864, 1837 
0:1:16:880, 1820 
0:1:16:896, 1796 
0:1:16:912, 1758 
0:1:16:927, 1726 
0:1:16:943, 1684 
0:1:16:959, 1671 
0:1:16:975, 1669 
0:1:16:990, 1663 
0:1:17:5, 1657 
0:1:17:21, 1658 
0:1:17:36, 1658 
0:1:17:52, 1657 
0:1:17:67, 1661 
0:1:17:83, 1706 
0:1:17:99, 1772 
0:1:17:115, 2163 
0:1:17:131, 2283 
0:1:17:147, 2351 
0:1:17:162, 2401 
0:1:17:177, 2417 
0:1:17:193, 2406 
0:1:17:209, 2397 
0:1:17:224, 2392 
0:1:17:239, 2392 
0:1:17:254, 2399 
0:1:17:270, 2395 
0:1:17:286, 2365 
0:1:17:302, 2326 
0:1:17:318, 2276 
0:1:17:334, 2202 
0:1:17:350, 2158 
0:1:17:365, 2135 
0:1:17:381, 2103 
0:1:17:397, 2077 
0:1:17:413, 2055 
0:1:17:429, 2044 
0:1:17:445, 2029 
0:1:17:461, 2013 
0:1:17:476, 2010 
0:1:17:492, 2003 
0:1:17:508, 1986 
0:1:17:524, 1975 
0:1:17:540, 1964 
0:1:17:556, 1955 
0:1:17:571, 1940 
0:1:17:587, 1926 
0:1:17:603, 1908 
0:1:17:619, 1894 
0:1:17:635, 1882 
0:1:17:651, 1851 
0:1:17:667, 1830 
0:1:17:683, 1810 
0:1:17:698, 1799 
0:1:17:713, 1794 
0:1:17:729, 1782 
0:1:17:744, 1769 
0:1:17:759, 1762 
0:1:17:775, 1753 
0:1:17:791, 1737 
0:1:17:806, 1713 
0:1:17:821, 1690 
0:1:17:837, 1664 
0:1:17:853, 1652 
0:1:17:868, 1651 
0:1:17:884, 1679 
0:1:17:900, 1774 
0:1:17:916, 1826 
0:1:17:931, 1948 
0:1:17:946, 2076 
0:1:17:961, 2158 
0:1:17:977, 2249 
0:1:17:993, 2273 
0:1:18:9, 2275 
0:1:18:25, 2280 
0:1:18:41, 2281 
0:1:18:57, 2278 
0:1:18:73, 2284 
0:1:18:89, 2291 
0:1:18:105, 2299 
0:1:18:121, 2312 
0:1:18:136, 2317 
0:1:18:152, 2302 
0:1:18:167, 2274 
0:1:18:182, 2222 
0:1:18:198, 2172 
0:1:18:214, 2143 
0:1:18:230, 2134 
0:1:18:246, 2145 
0:1:18:262, 2161 
0:1:18:279, 2188 
0:1:18:294, 2195 
0:1:18:310, 2197 
0:1:18:325, 2191 
0:1:18:341, 2174 
0:1:18:357, 2148 
0:1:18:372, 2120 
0:1:18:387, 2094 
0:1:18:402, 2075 
0:1:18:417, 2050 
0:1:18:433, 2027 
0:1:18:449, 1991 
0:1:18:465, 1967 
0:1:18:480, 1948 
0:1:18:496, 1934 
0:1:18:512, 1898 
0:1:18:527, 1864 
0:1:18:542, 1841 
0:1:18:557, 1811 
0:1:18:573, 1784 
0:1:18:589, 1753 
0:1:18:605, 1734 
0:1:18:620, 1707 
0:1:18:635, 1695 
0:1:18:650, 1676 
0:1:18:666, 1660 
0:1:18:681, 1650 
0:1:18:697, 1636 
0:1:18:713, 1622 
0:1:18:729, 1613 
0:1:18:745, 1609 
0:1:18:761, 1620 
0:1:18:777, 1667 
0:1:18:792, 1743 
0:1:18:808, 1850 
0:1:18:824, 2007 
0:1:18:840, 2316 
0:1:18:856, 2325 
0:1:18:872, 2325 
0:1:18:887, 2327 
0:1:18:903, 2334 
0:1:18:918, 2344 
0:1:18:933, 2351 
0:1:18:949, 2362 
0:1:18:965, 2382 
0:1:18:980, 2399 
0:1:18:995, 2406 
0:1:19:10, 2418 
0:1:19:25, 2417 
0:1:19:41, 2382 
0:1:19:57, 2326 
0:1:19:72, 2293 
0:1:19:88, 2264 
0:1:19:103, 2232 
0:1:19:118, 2186 
0:1:19:134, 2159 
0:1:19:150, 2137 
0:1:19:165, 2122 
0:1:19:180, 2101 
0:1:19:196, 2077 
0:1:19:212, 2052 
0:1:19:228, 2030 
0:1:19:244, 2008 
0:1:19:260, 1969 
0:1:19:276, 1954 
0:1:19:292, 1936 
0:1:19:308, 1910 
0:1:19:324, 1891 
0:1:19:339, 1872 
0:1:19:354, 1845 
0:1:19:369, 1826 
0:1:19:385, 1806 
0:1:19:401, 1771 
0:1:19:417, 1739 
0:1:19:432, 1697 
0:1:19:448, 1649 
0:1:19:464, 1615 
0:1:19:480, 1592 
0:1:19:496, 1575 
0:1:19:512, 1564 
0:1:19:528, 1541 
0:1:19:544, 1517 
0:1:19:559, 1494 
0:1:19:574, 1487 
0:1:19:589, 1488 
0:1:19:604, 1495 
0:1:19:620, 1512 
0:1:19:636, 1543 
0:1:19:652, 1608 
0:1:19:668, 1700 
0:1:19:684, 1821 
0:1:19:700, 1965 
0:1:19:716, 2072 
0:1:19:732, 2163 
0:1:19:748, 2208 
0:1:19:763, 2219 
0:1:19:778, 2214 
0:1:19:793, 2207 
0:1:19:808, 2199 
0:1:19:823, 2185 
0:1:19:839, 2177 
0:1:19:855, 2180 
0:1:19:871, 2165 
0:1:19:887, 2151 
0:1:19:902, 2129 
0:1:19:917, 2113 
0:1:19:933, 2108 
0:1:19:949, 2111 
0:1:19:965, 2124 
0:1:19:980, 2135 
0:1:19:996, 2134 
0:1:20:12, 2118 
0:1:20:28, 2111 
0:1:20:43, 2094 
0:1:20:58, 2074 
0:1:20:73, 2058 
0:1:20:89, 2028 
0:1:20:104, 1999 
0:1:20:120, 1969 
0:1:20:136, 1938 
0:1:20:152, 1918 
0:1:20:168, 1894 
0:1:20:184, 1853 
0:1:20:200, 1829 
0:1:20:216, 1785 
0:1:20:232, 1744 
0:1:20:248, 1720 
0:1:20:263, 1694 
0:1:20:278, 1679 
0:1:20:293, 1673 
0:1:20:309, 1665 
0:1:20:325, 1652 
0:1:20:340, 1640 
0:1:20:356, 1626 
0:1:20:372, 1602 
0:1:20:388, 1582 
0:1:20:403, 1572 
0:1:20:418, 1569 
0:1:20:434, 1578 
0:1:20:449, 1618 
0:1:20:465, 1688 
0:1:20:481, 1775 
0:1:20:497, 1878 
0:1:20:512, 1984 
0:1:20:527, 2110 
0:1:20:542, 2156 
0:1:20:557, 2189 
0:1:20:573, 2209 
0:1:20:589, 2207 
0:1:20:605, 2191 
0:1:20:621, 2168 
0:1:20:636, 2133 
0:1:20:651, 2102 
0:1:20:666, 2071 
0:1:20:682, 2051 
0:1:20:698, 2033 
0:1:20:714, 2020 
0:1:20:729, 2012 
0:1:20:744, 1999 
0:1:20:760, 1973 
0:1:20:776, 1954 
0:1:20:792, 1929 
0:1:20:808, 1896 
0:1:20:824, 1879 
0:1:20:840, 1858 
0:1:20:856, 1856 
0:1:20:871, 1853 
0:1:20:886, 1843 
0:1:20:902, 1825 
0:1:20:918, 1813 
0:1:20:934, 1799 
0:1:20:949, 1789 
0:1:20:964, 1782 
0:1:20:979, 1771 
0:1:20:994, 1762 
0:1:21:9, 1748 
0:1:21:24, 1740 
0:1:21:38, 1732 
0:1:21:54, 1721 
0:1:21:70, 1717 
0:1:21:86, 1712 
0:1:21:101, 1698 
0:1:21:116, 1693 
0:1:21:131, 1681 
0:1:21:146, 1679 
0:1:21:161, 1719 
0:1:21:177, 1765 
0:1:21:193, 1847 
0:1:21:208, 1933 
0:1:21:223, 2010 
0:1:21:238, 2069 
0:1:21:255, 2111 
0:1:21:270, 2130 
0:1:21:285, 2136 
0:1:21:300, 2132 
0:1:21:316, 2124 
0:1:21:332, 2121 
0:1:21:347, 2122 
0:1:21:363, 2130 
0:1:21:379, 2143 
0:1:21:395, 2149 
0:1:21:410, 2145 
0:1:21:425, 2135 
0:1:21:441, 2122 
0:1:21:456, 2100 
0:1:21:472, 2096 
0:1:21:488, 2095 
0:1:21:504, 2090 
0:1:21:520, 2087 
0:1:21:535, 2090 
0:1:21:551, 2085 
0:1:21:566, 2073 
0:1:21:582, 2055 
0:1:21:597, 2039 
0:1:21:612, 2029 
0:1:21:628, 2022 
0:1:21:644, 1999 
0:1:21:659, 1961 
0:1:21:675, 1934 
0:1:21:690, 1907 
0:1:21:705, 1872 
0:1:21:721, 1823 
0:1:21:737, 1760 
0:1:21:753, 1722 
0:1:21:769, 1706 
0:1:21:784, 1700 
0:1:21:801, 1692 
0:1:21:816, 1677 
0:1:21:832, 1656 
0:1:21:849, 1646 
0:1:21:865, 1638 
0:1:21:881, 1641 
0:1:21:896, 1637 
0:1:21:912, 1626 
0:1:21:927, 1617 
0:1:21:942, 1603 
0:1:21:957, 1597 
0:1:21:973, 1623 
0:1:21:989, 1681 
0:1:22:5, 1797 
0:1:22:21, 1914 
0:1:22:37, 2015 
0:1:22:53, 2093 
0:1:22:68, 2132 
0:1:22:83, 2143 
0:1:22:98, 2147 
0:1:22:113, 2145 
0:1:22:129, 2138 
0:1:22:145, 2139 
0:1:22:161, 2149 
0:1:22:176, 2164 
0:1:22:192, 2201 
0:1:22:208, 2220 
0:1:22:224, 2227 
0:1:22:240, 2219 
0:1:22:256, 2206 
0:1:22:271, 2183 
0:1:22:287, 2092 
0:1:22:303, 2073 
0:1:22:319, 2046 
0:1:22:335, 2019 
0:1:22:350, 1988 
0:1:22:366, 1951 
0:1:22:382, 1912 
0:1:22:397, 1878 
0:1:22:412, 1844 
0:1:22:428, 1818 
0:1:22:444, 1801 
0:1:22:460, 1783 
0:1:22:476, 1768 
0:1:22:492, 1762 
0:1:22:508, 1753 
0:1:22:524, 1743 
0:1:22:540, 1736 
0:1:22:556, 1737 
0:1:22:571, 1753 
0:1:22:587, 1761 
0:1:22:602, 1760 
0:1:22:617, 1753 
0:1:22:632, 1745 
0:1:22:647, 1727 
0:1:22:663, 1718 
0:1:22:679, 1716 
0:1:22:695, 1711 
0:1:22:711, 1708 
0:1:22:727, 1704 
0:1:22:743, 1704 
0:1:22:759, 1696 
0:1:22:775, 1683 
0:1:22:791, 1706 
0:1:22:806, 1760 
0:1:22:822, 1877 
0:1:22:838, 1991 
0:1:22:853, 2089 
0:1:22:869, 2162 
0:1:22:884, 2194 
0:1:22:899, 2199 
0:1:22:915, 2196 
0:1:22:931, 2182 
0:1:22:947, 2168 
0:1:22:962, 2162 
0:1:22:978, 2153 
0:1:22:994, 2152 
0:1:23:9, 2148 
0:1:23:25, 2140 
0:1:23:41, 2132 
0:1:23:57, 2117 
0:1:23:73, 2101 
0:1:23:89, 2072 
0:1:23:104, 2064 
0:1:23:119, 2057 
0:1:23:135, 2044 
0:1:23:151, 2044 
0:1:23:167, 2042 
0:1:23:183, 2040 
0:1:23:199, 2040 
0:1:23:215, 2033 
0:1:23:231, 2025 
0:1:23:247, 2015 
0:1:23:262, 2001 
0:1:23:278, 1983 
0:1:23:294, 1960 
0:1:23:310, 1933 
0:1:23:326, 1903 
0:1:23:341, 1896 
0:1:23:356, 1890 
0:1:23:372, 1879 
0:1:23:388, 1873 
0:1:23:404, 1861 
0:1:23:420, 1847 
0:1:23:436, 1837 
0:1:23:452, 1827 
0:1:23:467, 1829 
0:1:23:483, 1833 
0:1:23:499, 1838 
0:1:23:515, 1840 
0:1:23:531, 1837 
0:1:23:546, 1836 
0:1:23:561, 1826 
0:1:23:576, 1817 
0:1:23:591, 1824 
0:1:23:606, 1854 
0:1:23:622, 1911 
0:1:23:638, 2012 
0:1:23:654, 2098 
0:1:23:670, 2179 
0:1:23:686, 2235 
0:1:23:701, 2257 
0:1:23:716, 2256 
0:1:23:732, 2248 
0:1:23:748, 2236 
0:1:23:763, 2223 
0:1:23:779, 2219 
0:1:23:795, 2220 
0:1:23:810, 2234 
0:1:23:825, 2238 
0:1:23:841, 2233 
0:1:23:857, 2219 
0:1:23:873, 2186 
0:1:23:888, 2162 
0:1:23:903, 2134 
0:1:23:919, 2123 
0:1:23:935, 2114 
0:1:23:951, 2113 
0:1:23:966, 2117 
0:1:23:982, 2116 
0:1:23:998, 2085 
0:1:24:14, 2043 
0:1:24:30, 2019 
0:1:24:45, 1999 
0:1:24:61, 1979 
0:1:24:76, 1974 
0:1:24:91, 1964 
0:1:24:106, 1951 
0:1:24:122, 1941 
0:1:24:138, 1925 
0:1:24:154, 1904 
0:1:24:169, 1890 
0:1:24:185, 1869 
0:1:24:201, 1856 
0:1:24:217, 1848 
0:1:24:232, 1838 
0:1:24:247, 1836 
0:1:24:263, 1835 
0:1:24:278, 1829 
0:1:24:293, 1821 
0:1:24:309, 1814 
0:1:24:325, 1804 
0:1:24:340, 1790 
0:1:24:355, 1782 
0:1:24:370, 1769 
0:1:24:386, 1770 
0:1:24:402, 1789 
0:1:24:418, 1818 
0:1:24:434, 1871 
0:1:24:450, 1969 
0:1:24:466, 2065 
0:1:24:482, 2168 
0:1:24:498, 2254 
0:1:24:513, 2332 
0:1:24:528, 2367 
0:1:24:543, 2388 
0:1:24:559, 2388 
0:1:24:575, 2374 
0:1:24:590, 2370 
0:1:24:605, 2380 
0:1:24:620, 2394 
0:1:24:635, 2413 
0:1:24:651, 2421 
0:1:24:666, 2415 
0:1:24:681, 2393 
0:1:24:696, 2375 
0:1:24:711, 2353 
0:1:24:726, 2324 
0:1:24:742, 2308 
0:1:24:757, 2287 
0:1:24:772, 2267 
0:1:24:788, 2251 
0:1:24:804, 2238 
0:1:24:820, 2224 
0:1:24:836, 2213 
0:1:24:852, 2194 
0:1:24:868, 2177 
0:1:24:884, 2158 
0:1:24:900, 2136 
0:1:24:916, 2123 
0:1:24:931, 2106 
0:1:24:947, 2097 
0:1:24:963, 2072 
0:1:24:979, 2046 
0:1:24:994, 2028 
0:1:25:9, 2010 
0:1:25:24, 1993 
0:1:25:40, 1977 
0:1:25:56, 1959 
0:1:25:72, 1946 
0:1:25:88, 1934 
0:1:25:104, 1916 
0:1:25:120, 1895 
0:1:25:136, 1865 
0:1:25:152, 1839 
0:1:25:167, 1805 
0:1:25:183, 1770 
0:1:25:199, 1741 
0:1:25:215, 1729 
0:1:25:230, 1718 
0:1:25:245, 1716 
0:1:25:261, 1713 
0:1:25:277, 1708 
0:1:25:293, 1705 
0:1:25:309, 1713 
0:1:25:325, 1729 
0:1:25:341, 1755 
0:1:25:357, 1797 
0:1:25:372, 1876 
0:1:25:388, 1957 
0:1:25:404, 2019 
0:1:25:420, 2092 
0:1:25:436, 2140 
0:1:25:452, 2153 
0:1:25:468, 2149 
0:1:25:483, 2144 
0:1:25:498, 2136 
0:1:25:514, 2134 
0:1:25:530, 2163 
0:1:25:545, 2191 
0:1:25:561, 2217 
0:1:25:577, 2235 
0:1:25:593, 2224 
0:1:25:609, 2193 
0:1:25:624, 2169 
0:1:25:639, 2150 
0:1:25:655, 2136 
0:1:25:671, 2127 
0:1:25:687, 2120 
0:1:25:702, 2121 
0:1:25:717, 2126 
0:1:25:733, 2045 
0:1:25:749, 2024 
0:1:25:764, 2001 
0:1:25:780, 1970 
0:1:25:796, 1928 
0:1:25:812, 1890 
0:1:25:828, 1848 
0:1:25:844, 1815 
0:1:25:860, 1784 
0:1:25:875, 1780 
0:1:25:891, 1776 
0:1:25:907, 1763 
0:1:25:923, 1749 
0:1:25:938, 1721 
0:1:25:953, 1687 
0:1:25:969, 1671 
0:1:25:985, 1657 
0:1:26:1, 1644 
0:1:26:17, 1632 
0:1:26:33, 1617 
0:1:26:48, 1609 
0:1:26:63, 1629 
0:1:26:79, 1685 
0:1:26:95, 1786 
0:1:26:111, 1851 
0:1:26:127, 1925 
0:1:26:143, 1996 
0:1:26:159, 2027 
0:1:26:174, 2032 
0:1:26:189, 2031 
0:1:26:204, 2026 
0:1:26:220, 2004 
0:1:26:235, 1988 
0:1:26:251, 1982 
0:1:26:267, 1983 
0:1:26:283, 1985 
0:1:26:299, 1997 
0:1:26:315, 1997 
0:1:26:331, 1987 
0:1:26:346, 1973 
0:1:26:362, 1954 
0:1:26:377, 1923 
0:1:26:392, 1913 
0:1:26:407, 1906 
0:1:26:422, 1901 
0:1:26:437, 1902 
0:1:26:453, 1909 
0:1:26:469, 1906 
0:1:26:485, 1912 
0:1:26:501, 1910 
0:1:26:516, 1911 
0:1:26:532, 1912 
0:1:26:548, 1896 
0:1:26:563, 1862 
0:1:26:578, 1827 
0:1:26:593, 1807 
0:1:26:608, 1797 
0:1:26:624, 1787 
0:1:26:639, 1777 
0:1:26:654, 1768 
0:1:26:670, 1765 
0:1:26:686, 1754 
0:1:26:702, 1737 
0:1:26:718, 1711 
0:1:26:734, 1687 
0:1:26:749, 1700 
0:1:26:764, 1746 
0:1:26:780, 1809 
0:1:26:795, 1914 
0:1:26:810, 1973 
0:1:26:826, 2037 
0:1:26:842, 2073 
0:1:26:858, 2094 
0:1:26:874, 2102 
0:1:26:889, 2094 
0:1:26:905, 2068 
0:1:26:921, 2050 
0:1:26:936, 2036 
0:1:26:951, 2023 
0:1:26:966, 2014 
0:1:26:982, 2007 
0:1:26:998, 1994 
0:1:27:14, 1982 
0:1:27:29, 1966 
0:1:27:44, 1942 
0:1:27:60, 1914 
0:1:27:76, 1907 
0:1:27:92, 1906 
0:1:27:107, 1927 
0:1:27:122, 1958 
0:1:27:138, 1972 
0:1:27:154, 1976 
0:1:27:170, 1977 
0:1:27:186, 1971 
0:1:27:201, 1966 
0:1:27:216, 1964 
0:1:27:231, 1956 
0:1:27:246, 1947 
0:1:27:262, 1937 
0:1:27:278, 1932 
0:1:27:294, 1924 
0:1:27:309, 1913 
0:1:27:325, 1905 
0:1:27:341, 1896 
0:1:27:356, 1888 
0:1:27:372, 1872 
0:1:27:388, 1859 
0:1:27:404, 1847 
0:1:27:419, 1840 
0:1:27:435, 1831 
0:1:27:451, 1827 
0:1:27:467, 1942 
0:1:27:483, 2051 
0:1:27:499, 2142 
0:1:27:515, 2217 
0:1:27:531, 2291 
0:1:27:546, 2318 
0:1:27:562, 2328 
0:1:27:577, 2327 
0:1:27:592, 2322 
0:1:27:608, 2333 
0:1:27:624, 2343 
0:1:27:640, 2343 
0:1:27:656, 2332 
0:1:27:672, 2309 
0:1:27:688, 2284 
0:1:27:704, 2249 
0:1:27:720, 2234 
0:1:27:735, 2216 
0:1:27:750, 2196 
0:1:27:765, 2177 
0:1:27:781, 2170 
0:1:27:797, 2165 
0:1:27:812, 2160 
0:1:27:827, 2153 
0:1:27:843, 2122 
0:1:27:859, 2082 
0:1:27:875, 2041 
0:1:27:891, 2008 
0:1:27:907, 1996 
0:1:27:923, 1989 
0:1:27:938, 1979 
0:1:27:954, 1957 
0:1:27:969, 1921 
0:1:27:985, 1891 
0:1:28:1, 1873 
0:1:28:17, 1853 
0:1:28:33, 1838 
0:1:28:48, 1823 
0:1:28:63, 1798 
0:1:28:78, 1774 
0:1:28:94, 1754 
0:1:28:110, 1782 
0:1:28:126, 1840 
0:1:28:142, 1936 
0:1:28:158, 1998 
0:1:28:174, 2066 
0:1:28:190, 2124 
0:1:28:206, 2158 
0:1:28:222, 2164 
0:1:28:238, 2164 
0:1:28:254, 2155 
0:1:28:270, 2151 
0:1:28:285, 2156 
0:1:28:300, 2163 
0:1:28:315, 2169 
0:1:28:331, 2181 
0:1:28:347, 2194 
0:1:28:364, 2194 
0:1:28:380, 2188 
0:1:28:396, 2176 
0:1:28:412, 2145 
0:1:28:427, 2118 
0:1:28:443, 2086 
0:1:28:459, 2039 
0:1:28:474, 2025 
0:1:28:489, 2017 
0:1:28:505, 2013 
0:1:28:520, 2023 
0:1:28:535, 2018 
0:1:28:550, 1990 
0:1:28:566, 1961 
0:1:28:582, 1931 
0:1:28:598, 1902 
0:1:28:614, 1886 
0:1:28:630, 1862 
0:1:28:646, 1841 
0:1:28:662, 1811 
0:1:28:677, 1783 
0:1:28:694, 1770 
0:1:28:709, 1763 
0:1:28:725, 1758 
0:1:28:741, 1766 
0:1:28:757, 1773 
0:1:28:772, 1768 
0:1:28:788, 1753 
0:1:28:804, 1731 
0:1:28:820, 1718 
0:1:28:836, 1715 
0:1:28:852, 1740 
0:1:28:868, 1802 
0:1:28:884, 1865 
0:1:28:900, 1991 
0:1:28:916, 2087 
0:1:28:932, 2173 
0:1:28:948, 2214 
0:1:28:964, 2215 
0:1:28:980, 2207 
0:1:28:995, 2191 
0:1:29:10, 2177 
0:1:29:26, 2170 
0:1:29:42, 2168 
0:1:29:58, 2172 
0:1:29:74, 2184 
0:1:29:90, 2181 
0:1:29:106, 2157 
0:1:29:122, 2129 
0:1:29:138, 2088 
0:1:29:153, 1933 
0:1:29:169, 1918 
0:1:29:185, 1900 
0:1:29:200, 1889 
0:1:29:215, 1888 
0:1:29:230, 1880 
0:1:29:245, 1858 
0:1:29:260, 1838 
0:1:29:275, 1790 
0:1:29:291, 1762 
0:1:29:307, 1740 
0:1:29:323, 1720 
0:1:29:339, 1714 
0:1:29:355, 1713 
0:1:29:371, 1713 
0:1:29:387, 1714 
0:1:29:403, 1703 
0:1:29:419, 1688 
0:1:29:435, 1672 
0:1:29:450, 1658 
0:1:29:465, 1657 
0:1:29:480, 1654 
0:1:29:495, 1648 
0:1:29:511, 1642 
0:1:29:527, 1636 
0:1:29:542, 1625 
0:1:29:558, 1636 
0:1:29:573, 1666 
0:1:29:589, 1743 
0:1:29:604, 1813 
0:1:29:619, 1928 
0:1:29:634, 2008 
0:1:29:650, 2057 
0:1:29:665, 2081 
0:1:29:681, 2086 
0:1:29:696, 2081 
0:1:29:711, 2070 
0:1:29:727, 2059 
0:1:29:743, 2053 
0:1:29:759, 2059 
0:1:29:775, 2070 
0:1:29:791, 2077 
0:1:29:807, 2086 
0:1:29:823, 2081 
0:1:29:839, 2054 
0:1:29:855, 2029 
0:1:29:870, 2005 
0:1:29:886, 1999 
0:1:29:901, 1986 
0:1:29:917, 1978 
0:1:29:932, 1974 
0:1:29:947, 1963 
0:1:29:963, 1946 
0:1:29:979, 1924 
0:1:29:994, 1901 
0:1:30:9, 1877 
0:1:30:25, 1863 
0:1:30:41, 1847 
0:1:30:57, 1827 
0:1:30:73, 1814 
0:1:30:89, 1798 
0:1:30:105, 1790 
0:1:30:120, 1791 
0:1:30:136, 1782 
0:1:30:152, 1774 
0:1:30:167, 1769 
0:1:30:182, 1758 
0:1:30:197, 1758 
0:1:30:213, 1752 
0:1:30:229, 1741 
0:1:30:245, 1730 
0:1:30:261, 1721 
0:1:30:277, 1723 
0:1:30:293, 1729 
0:1:30:308, 1726 
0:1:30:324, 1725 
0:1:30:340, 1722 
0:1:30:355, 1727 
0:1:30:370, 1760 
0:1:30:386, 1801 
0:1:30:401, 1856 
0:1:30:416, 1947 
0:1:30:431, 2016 
0:1:30:447, 2100 
0:1:30:463, 2132 
0:1:30:479, 2141 
0:1:30:495, 2132 
0:1:30:510, 2110 
0:1:30:526, 2073 
0:1:30:542, 2047 
0:1:30:557, 2035 
0:1:30:573, 2031 
0:1:30:589, 2030 
0:1:30:605, 2023 
0:1:30:621, 1999 
0:1:30:636, 1973 
0:1:30:651, 1960 
0:1:30:666, 1946 
0:1:30:682, 1928 
0:1:30:698, 1919 
0:1:30:713, 1915 
0:1:30:729, 1903 
0:1:30:744, 1906 
0:1:30:759, 1908 
0:1:30:775, 1907 
0:1:30:790, 1910 
0:1:30:805, 1897 
0:1:30:820, 1854 
0:1:30:835, 1848 
0:1:30:851, 1845 
0:1:30:866, 1838 
0:1:30:881, 1833 
0:1:30:896, 1823 
0:1:30:912, 1815 
0:1:30:928, 1810 
0:1:30:944, 1802 
0:1:30:960, 1796 
0:1:30:976, 1799 
0:1:30:992, 1799 
0:1:31:8, 1798 
0:1:31:24, 1794 
0:1:31:40, 1787 
0:1:31:56, 1796 
0:1:31:71, 1827 
0:1:31:87, 1864 
0:1:31:102, 1961 
0:1:31:117, 2023 
0:1:31:132, 2092 
0:1:31:148, 2140 
0:1:31:164, 2150 
0:1:31:179, 2148 
0:1:31:195, 2118 
0:1:31:211, 2093 
0:1:31:227, 2077 
0:1:31:243, 2077 
0:1:31:259, 2086 
0:1:31:275, 2103 
0:1:31:291, 2114 
0:1:31:307, 2127 
0:1:31:323, 2137 
0:1:31:339, 2135 
0:1:31:354, 2134 
0:1:31:369, 2131 
0:1:31:385, 2120 
0:1:31:401, 2112 
0:1:31:416, 2110 
0:1:31:431, 2105 
0:1:31:447, 2107 
0:1:31:463, 2103 
0:1:31:479, 2091 
0:1:31:494, 2065 
0:1:31:509, 2030 
0:1:31:525, 2018 
0:1:31:541, 2003 
0:1:31:557, 1989 
0:1:31:572, 1970 
0:1:31:587, 1942 
0:1:31:602, 1917 
0:1:31:617, 1899 
0:1:31:633, 1886 
0:1:31:649, 1878 
0:1:31:664, 1856 
0:1:31:680, 1837 
0:1:31:696, 1824 
0:1:31:711, 1823 
0:1:31:726, 1828 
0:1:31:741, 1861 
0:1:31:757, 1919 
0:1:31:772, 1989 
0:1:31:788, 2086 
0:1:31:803, 2145 
0:1:31:818, 2164 
0:1:31:833, 2156 
0:1:31:848, 2139 
0:1:31:864, 2119 
0:1:31:880, 2100 
0:1:31:896, 2077 
0:1:31:911, 2050 
0:1:31:927, 2016 
0:1:31:943, 1995 
0:1:31:959, 1983 
0:1:31:974, 1957 
0:1:31:989, 1932 
0:1:32:4, 1898 
0:1:32:20, 1869 
0:1:32:36, 1848 
0:1:32:51, 1862 
0:1:32:66, 1888 
0:1:32:81, 1916 
0:1:32:97, 1940 
0:1:32:113, 1954 
0:1:32:129, 1955 
0:1:32:144, 1940 
0:1:32:159, 1927 
0:1:32:175, 1913 
0:1:32:191, 1877 
0:1:32:207, 1856 
0:1:32:223, 1844 
0:1:32:239, 1837 
0:1:32:255, 1830 
0:1:32:271, 1817 
0:1:32:286, 1809 
0:1:32:301, 1816 
0:1:32:316, 1832 
0:1:32:332, 1842 
0:1:32:347, 1848 
0:1:32:362, 1850 
0:1:32:378, 1852 
0:1:32:394, 1865 
0:1:32:410, 1895 
0:1:32:426, 1939 
0:1:32:442, 1999 
0:1:32:458, 2073 
0:1:32:473, 2132 
0:1:32:489, 2176 
0:1:32:505, 2195 
0:1:32:520, 2200 
0:1:32:535, 2192 
0:1:32:551, 2177 
0:1:32:567, 2155 
0:1:32:583, 2146 
0:1:32:599, 2154 
0:1:32:615, 2157 
0:1:32:630, 2162 
0:1:32:646, 2160 
0:1:32:662, 2148 
0:1:32:677, 2135 
0:1:32:692, 2104 
0:1:32:707, 2082 
0:1:32:723, 2056 
0:1:32:739, 2040 
0:1:32:754, 2032 
0:1:32:770, 2029 
0:1:32:786, 2025 
0:1:32:802, 2014 
0:1:32:818, 1996 
0:1:32:834, 1973 
0:1:32:850, 1937 
0:1:32:866, 1905 
0:1:32:882, 1886 
0:1:32:898, 1879 
0:1:32:914, 1879 
0:1:32:930, 1869 
0:1:32:946, 1856 
0:1:32:961, 1848 
0:1:32:976, 1853 
0:1:32:991, 1868 
0:1:33:6, 1876 
0:1:33:22, 1889 
0:1:33:38, 1906 
0:1:33:53, 1905 
0:1:33:68, 1887 
0:1:33:84, 1887 
0:1:33:100, 1902 
0:1:33:115, 1948 
0:1:33:130, 2036 
0:1:33:146, 2104 
0:1:33:162, 2160 
0:1:33:178, 2197 
0:1:33:193, 2215 
0:1:33:209, 2227 
0:1:33:224, 2225 
0:1:33:239, 2216 
0:1:33:254, 2211 
0:1:33:270, 2203 
0:1:33:286, 2199 
0:1:33:302, 2200 
0:1:33:318, 2204 
0:1:33:334, 2210 
0:1:33:350, 2213 
0:1:33:366, 2219 
0:1:33:381, 2231 
0:1:33:397, 2237 
0:1:33:413, 2236 
0:1:33:428, 2235 
0:1:33:444, 2226 
0:1:33:459, 2217 
0:1:33:475, 2207 
0:1:33:491, 2191 
0:1:33:507, 2180 
0:1:33:522, 2176 
0:1:33:537, 2156 
0:1:33:553, 2140 
0:1:33:569, 2123 
0:1:33:585, 2101 
0:1:33:601, 2073 
0:1:33:617, 2038 
0:1:33:633, 2012 
0:1:33:648, 1993 
0:1:33:664, 1976 
0:1:33:680, 1966 
0:1:33:695, 1951 
0:1:33:710, 1934 
0:1:33:726, 1920 
0:1:33:742, 1907 
0:1:33:758, 1907 
0:1:33:773, 1904 
0:1:33:789, 1889 
0:1:33:805, 1871 
0:1:33:820, 1859 
0:1:33:836, 1849 
0:1:33:851, 1843 
0:1:33:867, 1844 
0:1:33:883, 1847 
0:1:33:899, 1852 
0:1:33:914, 1874 
0:1:33:929, 1924 
0:1:33:944, 1997 
0:1:33:960, 2082 
0:1:33:975, 2156 
0:1:33:990, 2219 
0:1:34:6, 2253 
0:1:34:22, 2254 
0:1:34:38, 2249 
0:1:34:54, 2240 
0:1:34:70, 2239 
0:1:34:85, 2254 
0:1:34:100, 2267 
0:1:34:116, 2275 
0:1:34:132, 2273 
0:1:34:148, 2254 
0:1:34:163, 2237 
0:1:34:178, 2199 
0:1:34:194, 2125 
0:1:34:210, 2085 
0:1:34:226, 2062 
0:1:34:242, 2057 
0:1:34:258, 2044 
0:1:34:274, 2038 
0:1:34:289, 2034 
0:1:34:305, 2033 
0:1:34:321, 2020 
0:1:34:337, 1985 
0:1:34:353, 1961 
0:1:34:368, 1938 
0:1:34:384, 1908 
0:1:34:399, 1893 
0:1:34:414, 1880 
0:1:34:429, 1864 
0:1:34:445, 1850 
0:1:34:461, 1830 
0:1:34:477, 1816 
0:1:34:493, 1809 
0:1:34:509, 1809 
0:1:34:525, 1811 
0:1:34:541, 1815 
0:1:34:557, 1824 
0:1:34:573, 1821 
0:1:34:589, 1809 
0:1:34:605, 1783 
0:1:34:621, 1764 
0:1:34:636, 1748 
0:1:34:651, 1732 
0:1:34:667, 1721 
0:1:34:683, 1715 
0:1:34:699, 1720 
0:1:34:715, 1744 
0:1:34:731, 1783 
0:1:34:747, 1839 
0:1:34:763, 1941 
0:1:34:779, 2032 
0:1:34:795, 2102 
0:1:34:810, 2157 
0:1:34:825, 2162 
0:1:34:841, 2140 
0:1:34:857, 2128 
0:1:34:872, 2115 
0:1:34:887, 2114 
0:1:34:902, 2123 
0:1:34:918, 2131 
0:1:34:933, 2136 
0:1:34:949, 2136 
0:1:34:965, 2129 
0:1:34:980, 2117 
0:1:34:996, 2097 
0:1:35:12, 2067 
0:1:35:27, 2050 
0:1:35:42, 2039 
0:1:35:57, 2029 
0:1:35:72, 2027 
0:1:35:87, 2030 
0:1:35:102, 2031 
0:1:35:117, 2030 
0:1:35:133, 2030 
0:1:35:149, 2025 
0:1:35:165, 2023 
0:1:35:181, 2013 
0:1:35:197, 1991 
0:1:35:213, 1965 
0:1:35:229, 1934 
0:1:35:245, 1920 
0:1:35:260, 1908 
0:1:35:276, 1899 
0:1:35:292, 1894 
0:1:35:308, 1892 
0:1:35:323, 1890 
0:1:35:338, 1895 
0:1:35:353, 1896 
0:1:35:369, 1883 
0:1:35:385, 1863 
0:1:35:400, 1845 
0:1:35:416, 1824 
0:1:35:432, 1811 
0:1:35:448, 1808 
0:1:35:464, 1818 
0:1:35:479, 1822 
0:1:35:494, 1822 
0:1:35:509, 1828 
0:1:35:525, 1841 
0:1:35:540, 1903 
0:1:35:555, 1983 
0:1:35:571, 2079 
0:1:35:586, 2170 
0:1:35:602, 2248 
0:1:35:618, 2280 
0:1:35:634, 2281 
0:1:35:650, 2275 
0:1:35:666, 2265 
0:1:35:681, 2258 
0:1:35:697, 2258 
0:1:35:712, 2259 
0:1:35:727, 2262 
0:1:35:743, 2262 
0:1:35:759, 2255 
0:1:35:775, 2230 
0:1:35:791, 2203 
0:1:35:806, 2175 
0:1:35:821, 2152 
0:1:35:837, 2136 
0:1:35:853, 2110 
0:1:35:868, 2079 
0:1:35:884, 2033 
0:1:35:900, 2009 
0:1:35:916, 1989 
0:1:35:932, 1958 
0:1:35:948, 1940 
0:1:35:964, 1932 
0:1:35:980, 1928 
0:1:35:996, 1930 
0:1:36:11, 1919 
0:1:36:27, 1899 
0:1:36:42, 1869 
0:1:36:57, 1839 
0:1:36:72, 1823 
0:1:36:87, 1822 
0:1:36:103, 1829 
0:1:36:119, 1839 
0:1:36:135, 1849 
0:1:36:151, 1854 
0:1:36:167, 1853 
0:1:36:183, 1844 
0:1:36:199, 1854 
0:1:36:215, 1900 
0:1:36:231, 1986 
0:1:36:247, 2101 
0:1:36:263, 2213 
0:1:36:278, 2287 
0:1:36:293, 2326 
0:1:36:310, 2386 
0:1:36:325, 2403 
0:1:36:341, 2407 
0:1:36:356, 2398 
0:1:36:372, 2379 
0:1:36:388, 2359 
0:1:36:404, 2326 
0:1:36:420, 2314 
0:1:36:436, 2294 
0:1:36:452, 2276 
0:1:36:467, 2265 
0:1:36:483, 2249 
0:1:36:499, 2234 
0:1:36:514, 2220 
0:1:36:529, 2201 
0:1:36:544, 2184 
0:1:36:559, 2165 
0:1:36:575, 2158 
0:1:36:591, 2147 
0:1:36:607, 2141 
0:1:36:622, 2122 
0:1:36:637, 2094 
0:1:36:652, 2068 
0:1:36:667, 2041 
0:1:36:682, 2005 
0:1:36:698, 1983 
0:1:36:714, 1957 
0:1:36:730, 1922 
0:1:36:745, 1898 
0:1:36:760, 1866 
0:1:36:776, 1844 
0:1:36:791, 1823 
0:1:36:807, 1797 
0:1:36:822, 1788 
0:1:36:838, 1790 
0:1:36:854, 1792 
0:1:36:870, 1790 
0:1:36:886, 1789 
0:1:36:902, 1785 
0:1:36:917, 1786 
0:1:36:932, 1786 
0:1:36:948, 1790 
0:1:36:964, 1814 
0:1:36:979, 1874 
0:1:36:994, 1960 
0:1:37:9, 2064 
0:1:37:25, 2196 
0:1:37:41, 2297 
0:1:37:57, 2353 
0:1:37:73, 2370 
0:1:37:89, 2365 
0:1:37:105, 2337 
0:1:37:121, 2322 
0:1:37:137, 2313 
0:1:37:153, 2316 
0:1:37:168, 2319 
0:1:37:184, 2312 
0:1:37:200, 2291 
0:1:37:215, 2258 
0:1:37:230, 2231 
0:1:37:246, 2219 
0:1:37:262, 2214 
0:1:37:278, 2213 
0:1:37:294, 2221 
0:1:37:310, 2225 
0:1:37:325, 2225 
0:1:37:341, 2230 
0:1:37:357, 2230 
0:1:37:373, 2224 
0:1:37:389, 2203 
0:1:37:405, 2181 
0:1:37:421, 2160 
0:1:37:436, 2146 
0:1:37:451, 2127 
0:1:37:466, 2106 
0:1:37:481, 2084 
0:1:37:497, 2055 
0:1:37:513, 2026 
0:1:37:529, 2006 
0:1:37:545, 1978 
0:1:37:561, 1946 
0:1:37:577, 1927 
0:1:37:593, 1890 
0:1:37:609, 1865 
0:1:37:625, 1841 
0:1:37:641, 1834 
0:1:37:657, 1840 
0:1:37:672, 1852 
0:1:37:687, 1890 
0:1:37:702, 1963 
0:1:37:718, 2067 
0:1:37:734, 2176 
0:1:37:750, 2268 
0:1:37:766, 2354 
0:1:37:782, 2404 
0:1:37:798, 2430 
0:1:37:814, 2423 
0:1:37:830, 2391 
0:1:37:846, 2366 
0:1:37:862, 2348 
0:1:37:877, 2326 
0:1:37:893, 2302 
0:1:37:909, 2271 
0:1:37:924, 2239 
0:1:37:939, 2221 
0:1:37:954, 2204 
0:1:37:969, 2190 
0:1:37:985, 2174 
0:1:38:1, 2163 
0:1:38:17, 2140 
0:1:38:33, 2127 
0:1:38:49, 2107 
0:1:38:65, 2089 
0:1:38:80, 2072 
0:1:38:96, 2044 
0:1:38:112, 2011 
0:1:38:128, 1969 
0:1:38:144, 1956 
0:1:38:159, 1941 
0:1:38:175, 1924 
0:1:38:191, 1915 
0:1:38:206, 1904 
0:1:38:221, 1897 
0:1:38:237, 1903 
0:1:38:253, 1904 
0:1:38:268, 1900 
0:1:38:284, 1892 
0:1:38:300, 1884 
0:1:38:316, 1876 
0:1:38:332, 1869 
0:1:38:347, 1862 
0:1:38:363, 1860 
0:1:38:379, 1857 
0:1:38:394, 1848 
0:1:38:409, 1852 
0:1:38:425, 1887 
0:1:38:441, 1960 
0:1:38:457, 2051 
0:1:38:473, 2154 
0:1:38:489, 2253 
0:1:38:505, 2336 
0:1:38:521, 2365 
0:1:38:537, 2379 
0:1:38:552, 2366 
0:1:38:568, 2347 
0:1:38:584, 2335 
0:1:38:600, 2314 
0:1:38:616, 2307 
0:1:38:631, 2300 
0:1:38:646, 2283 
0:1:38:662, 2260 
0:1:38:677, 2232 
0:1:38:693, 2199 
0:1:38:709, 2169 
0:1:38:725, 2157 
0:1:38:741, 2143 
0:1:38:757, 2136 
0:1:38:773, 2128 
0:1:38:789, 2119 
0:1:38:804, 2101 
0:1:38:820, 2082 
0:1:38:836, 2060 
0:1:38:852, 2045 
0:1:38:867, 2026 
0:1:38:882, 1996 
0:1:38:898, 1963 
0:1:38:914, 1933 
0:1:38:930, 1917 
0:1:38:946, 1900 
0:1:38:961, 1870 
0:1:38:977, 1855 
0:1:38:993, 1835 
0:1:39:9, 1808 
0:1:39:24, 1789 
0:1:39:39, 1776 
0:1:39:55, 1766 
0:1:39:70, 1756 
0:1:39:86, 1746 
0:1:39:101, 1733 
0:1:39:116, 1727 
0:1:39:131, 1731 
0:1:39:147, 1780 
0:1:39:163, 1865 
0:1:39:179, 1972 
0:1:39:195, 2096 
0:1:39:211, 2202 
0:1:39:227, 2280 
0:1:39:242, 2304 
0:1:39:257, 2311 
0:1:39:272, 2304 
0:1:39:288, 2259 
0:1:39:304, 2231 
0:1:39:320, 2211 
0:1:39:335, 2201 
0:1:39:350, 2192 
0:1:39:366, 2192 
0:1:39:381, 2184 
0:1:39:397, 2168 
0:1:39:413, 2151 
0:1:39:429, 2126 
0:1:39:445, 2116 
0:1:39:461, 2121 
0:1:39:476, 2120 
0:1:39:492, 2123 
0:1:39:508, 2120 
0:1:39:524, 2108 
0:1:39:539, 2099 
0:1:39:555, 2075 
0:1:39:571, 2058 
0:1:39:586, 2044 
0:1:39:601, 2032 
0:1:39:617, 2026 
0:1:39:633, 2013 
0:1:39:649, 1993 
0:1:39:665, 1959 
0:1:39:680, 1915 
0:1:39:696, 1872 
0:1:39:711, 1851 
0:1:39:727, 1836 
0:1:39:743, 1829 
0:1:39:758, 1815 
0:1:39:774, 1801 
0:1:39:789, 1785 
0:1:39:804, 1779 
0:1:39:819, 1776 
0:1:39:834, 1765 
0:1:39:850, 1748 
0:1:39:866, 1756 
0:1:39:881, 1791 
0:1:39:897, 1841 
0:1:39:913, 1885 
0:1:39:929, 1988 
0:1:39:945, 2061 
0:1:39:961, 2151 
0:1:39:976, 2232 
0:1:39:992, 2265 
0:1:40:8, 2269 
0:1:40:24, 2258 
0:1:40:39, 2222 
0:1:40:54, 2196 
0:1:40:69, 2178 
0:1:40:85, 2172 
0:1:40:100, 2181 
0:1:40:115, 2186 
0:1:40:131, 2185 
0:1:40:147, 2163 
0:1:40:162, 2121 
0:1:40:178, 2084 
0:1:40:193, 2058 
0:1:40:208, 2054 
0:1:40:224, 2060 
0:1:40:240, 2063 
0:1:40:256, 2067 
0:1:40:271, 2061 
0:1:40:286, 2041 
0:1:40:301, 2008 
0:1:40:317, 1967 
0:1:40:333, 1934 
0:1:40:349, 1897 
0:1:40:365, 1874 
0:1:40:381, 1837 
0:1:40:397, 1809 
0:1:40:413, 1782 
0:1:40:428, 1756 
0:1:40:444, 1719 
0:1:40:460, 1693 
0:1:40:476, 1674 
0:1:40:492, 1633 
0:1:40:507, 1615 
0:1:40:522, 1612 
0:1:40:538, 1623 
0:1:40:554, 1631 
0:1:40:570, 1619 
0:1:40:585, 1614 
0:1:40:601, 1623 
0:1:40:617, 1665 
0:1:40:633, 1727 
0:1:40:649, 1836 
0:1:40:665, 2006 
0:1:40:680, 2144 
0:1:40:696, 2256 
0:1:40:712, 2338 
0:1:40:728, 2392 
0:1:40:743, 2412 
0:1:40:758, 2412 
0:1:40:773, 2390 
0:1:40:789, 2354 
0:1:40:804, 2318 
0:1:40:819, 2285 
0:1:40:835, 2257 
0:1:40:850, 2245 
0:1:40:866, 2225 
0:1:40:881, 2204 
0:1:40:897, 2187 
0:1:40:913, 2155 
0:1:40:928, 2112 
0:1:40:944, 2061 
0:1:40:960, 2036 
0:1:40:976, 2028 
0:1:40:991, 2018 
0:1:41:6, 1972 
0:1:41:22, 1958 
0:1:41:38, 1947 
0:1:41:54, 1932 
0:1:41:69, 1920 
0:1:41:84, 1913 
0:1:41:100, 1909 
0:1:41:116, 1916 
0:1:41:132, 1906 
0:1:41:148, 1896 
0:1:41:164, 1890 
0:1:41:180, 1877 
0:1:41:196, 1871 
0:1:41:211, 1857 
0:1:41:226, 1836 
0:1:41:242, 1809 
0:1:41:258, 1768 
0:1:41:273, 1735 
0:1:41:289, 1707 
0:1:41:305, 1703 
0:1:41:321, 1713 
0:1:41:336, 1729 
0:1:41:352, 1800 
0:1:41:367, 1873 
0:1:41:382, 1990 
0:1:41:397, 2109 
0:1:41:412, 2201 
0:1:41:428, 2281 
0:1:41:443, 2312 
0:1:41:458, 2339 
0:1:41:474, 2348 
0:1:41:490, 2349 
0:1:41:506, 2344 
0:1:41:522, 2343 
0:1:41:537, 2351 
0:1:41:553, 2357 
0:1:41:569, 2360 
0:1:41:585, 2338 
0:1:41:601, 2296 
0:1:41:617, 2269 
0:1:41:633, 2241 
0:1:41:648, 2223 
0:1:41:663, 2212 
0:1:41:678, 2203 
0:1:41:692, 2203 
0:1:41:709, 2203 
0:1:41:725, 2207 
0:1:41:741, 2219 
0:1:41:756, 2226 
0:1:41:772, 2219 
0:1:41:788, 2203 
0:1:41:804, 2169 
0:1:41:820, 2146 
0:1:41:836, 2100 
0:1:41:852, 2065 
0:1:41:867, 2014 
0:1:41:882, 1982 
0:1:41:898, 1932 
0:1:41:913, 1915 
0:1:41:928, 1882 
0:1:41:943, 1836 
0:1:41:959, 1785 
0:1:41:975, 1767 
0:1:41:991, 1751 
0:1:42:6, 1750 
0:1:42:21, 1746 
0:1:42:37, 1744 
0:1:42:53, 1754 
0:1:42:69, 1773 
0:1:42:85, 1840 
0:1:42:100, 1955 
0:1:42:115, 2091 
0:1:42:131, 2226 
0:1:42:146, 2329 
0:1:42:161, 2415 
0:1:42:177, 2429 
0:1:42:193, 2427 
0:1:42:209, 2420 
0:1:42:225, 2406 
0:1:42:240, 2401 
0:1:42:255, 2396 
0:1:42:271, 2391 
0:1:42:286, 2377 
0:1:42:301, 2365 
0:1:42:316, 2333 
0:1:42:332, 2299 
0:1:42:348, 2252 
0:1:42:364, 2198 
0:1:42:379, 2148 
0:1:42:394, 2120 
0:1:42:410, 2097 
0:1:42:426, 2054 
0:1:42:442, 2017 
0:1:42:458, 1997 
0:1:42:474, 1984 
0:1:42:489, 1975 
0:1:42:504, 1965 
0:1:42:520, 1953 
0:1:42:535, 1940 
0:1:42:551, 1939 
0:1:42:567, 1927 
0:1:42:583, 1911 
0:1:42:599, 1897 
0:1:42:614, 1875 
0:1:42:629, 1840 
0:1:42:645, 1802 
0:1:42:661, 1753 
0:1:42:676, 1735 
0:1:42:692, 1695 
0:1:42:707, 1625 
0:1:42:723, 1581 
0:1:42:739, 1600 
0:1:42:754, 1643 
0:1:42:771, 1762 
0:1:42:787, 1877 
0:1:42:803, 2021 
0:1:42:819, 2125 
0:1:42:835, 2181 
0:1:42:850, 2206 
0:1:42:865, 2211 
0:1:42:880, 2201 
0:1:42:895, 2186 
0:1:42:910, 2183 
0:1:42:926, 2183 
0:1:42:942, 2185 
0:1:42:958, 2200 
0:1:42:973, 2216 
0:1:42:988, 2229 
0:1:43:3, 2241 
0:1:43:18, 2244 
0:1:43:34, 2237 
0:1:43:50, 2220 
0:1:43:66, 2205 
0:1:43:82, 2200 
0:1:43:97, 2189 
0:1:43:113, 2167 
0:1:43:129, 2129 
0:1:43:145, 2083 
0:1:43:160, 2013 
0:1:43:176, 1964 
0:1:43:192, 1916 
0:1:43:208, 1872 
0:1:43:224, 1829 
0:1:43:240, 1799 
0:1:43:256, 1773 
0:1:43:272, 1741 
0:1:43:288, 1718 
0:1:43:304, 1703 
0:1:43:319, 1699 
0:1:43:334, 1703 
0:1:43:350, 1712 
0:1:43:366, 1714 
0:1:43:381, 1712 
0:1:43:397, 1715 
0:1:43:412, 1712 
0:1:43:428, 1712 
0:1:43:444, 1702 
0:1:43:460, 1670 
0:1:43:476, 1646 
0:1:43:492, 1628 
0:1:43:507, 1630 
0:1:43:523, 1686 
0:1:43:539, 1769 
0:1:43:554, 1869 
0:1:43:569, 1924 
0:1:43:585, 2026 
0:1:43:600, 2143 
0:1:43:616, 2190 
0:1:43:632, 2206 
0:1:43:648, 2206 
0:1:43:664, 2202 
0:1:43:679, 2210 
0:1:43:695, 2229 
0:1:43:711, 2238 
0:1:43:727, 2256 
0:1:43:743, 2265 
0:1:43:759, 2254 
0:1:43:774, 2226 
0:1:43:789, 2178 
0:1:43:804, 2135 
0:1:43:819, 2092 
0:1:43:835, 2049 
0:1:43:851, 2012 
0:1:43:867, 1984 
0:1:43:883, 1968 
0:1:43:899, 1965 
0:1:43:915, 1962 
0:1:43:930, 1971 
0:1:43:946, 1978 
0:1:43:962, 1965 
0:1:43:978, 1946 
0:1:43:994, 1925 
0:1:44:9, 1900 
0:1:44:24, 1881 
0:1:44:39, 1865 
0:1:44:55, 1850 
0:1:44:71, 1829 
0:1:44:87, 1805 
0:1:44:103, 1791 
0:1:44:118, 1784 
0:1:44:133, 1774 
0:1:44:149, 1762 
0:1:44:165, 1752 
0:1:44:181, 1734 
0:1:44:197, 1726 
0:1:44:213, 1738 
0:1:44:229, 1780 
0:1:44:245, 1831 
0:1:44:260, 1927 
0:1:44:275, 2012 
0:1:44:291, 2090 
0:1:44:307, 2157 
0:1:44:323, 2229 
0:1:44:339, 2277 
0:1:44:355, 2300 
0:1:44:371, 2314 
0:1:44:387, 2307 
0:1:44:403, 2296 
0:1:44:419, 2286 
0:1:44:435, 2268 
0:1:44:450, 2197 
0:1:44:465, 2155 
0:1:44:481, 2114 
0:1:44:496, 2089 
0:1:44:511, 2057 
0:1:44:526, 2032 
0:1:44:541, 2021 
0:1:44:557, 2023 
0:1:44:572, 2018 
0:1:44:587, 2012 
0:1:44:603, 2010 
0:1:44:619, 1995 
0:1:44:634, 1978 
0:1:44:649, 1954 
0:1:44:665, 1935 
0:1:44:680, 1911 
0:1:44:695, 1874 
0:1:44:710, 1843 
0:1:44:725, 1825 
0:1:44:740, 1802 
0:1:44:755, 1777 
0:1:44:770, 1763 
0:1:44:786, 1742 
0:1:44:802, 1729 
0:1:44:818, 1721 
0:1:44:834, 1718 
0:1:44:850, 1715 
0:1:44:866, 1714 
0:1:44:881, 1712 
0:1:44:896, 1712 
0:1:44:911, 1715 
0:1:44:927, 1728 
0:1:44:943, 1746 
0:1:44:959, 1787 
0:1:44:975, 1836 
0:1:44:990, 1898 
0:1:45:6, 1994 
0:1:45:22, 2123 
0:1:45:38, 2201 
0:1:45:54, 2279 
0:1:45:70, 2307 
0:1:45:85, 2328 
0:1:45:101, 2323 
0:1:45:117, 2294 
0:1:45:132, 2279 
0:1:45:148, 2249 
0:1:45:164, 2223 
0:1:45:180, 2198 
0:1:45:196, 2168 
0:1:45:211, 2128 
0:1:45:226, 2094 
0:1:45:242, 2065 
0:1:45:258, 2041 
0:1:45:273, 2014 
0:1:45:289, 2001 
0:1:45:305, 1988 
0:1:45:321, 1982 
0:1:45:337, 1983 
0:1:45:353, 1978 
0:1:45:369, 1964 
0:1:45:385, 1953 
0:1:45:401, 1920 
0:1:45:417, 1890 
0:1:45:433, 1851 
0:1:45:448, 1832 
0:1:45:463, 1821 
0:1:45:479, 1813 
0:1:45:495, 1793 
0:1:45:511, 1763 
0:1:45:527, 1741 
0:1:45:543, 1706 
0:1:45:558, 1684 
0:1:45:573, 1665 
0:1:45:589, 1654 
0:1:45:605, 1645 
0:1:45:620, 1627 
0:1:45:635, 1608 
0:1:45:651, 1595 
0:1:45:667, 1580 
0:1:45:683, 1570 
0:1:45:698, 1583 
0:1:45:714, 1618 
0:1:45:730, 1694 
0:1:45:746, 1798 
0:1:45:762, 1943 
0:1:45:777, 2072 
0:1:45:793, 2176 
0:1:45:809, 2302 
0:1:45:825, 2367 
0:1:45:841, 2396 
0:1:45:856, 2403 
0:1:45:872, 2396 
0:1:45:888, 2392 
0:1:45:904, 2395 
0:1:45:919, 2386 
0:1:45:934, 2374 
0:1:45:949, 2332 
0:1:45:965, 2301 
0:1:45:980, 2265 
0:1:45:996, 2227 
