Time, Data
0:0:0:0, 2731 
0:0:0:18, 2982 
0:0:0:34, 3050 
0:0:0:50, 3115 
0:0:0:65, 3118 
0:0:0:81, 3089 
0:0:0:96, 3054 
0:0:0:112, 2984 
0:0:0:128, 2885 
0:0:0:143, 2782 
0:0:0:159, 2705 
0:0:0:175, 2594 
0:0:0:191, 2545 
0:0:0:206, 2413 
0:0:0:221, 2337 
0:0:0:237, 2241 
0:0:0:253, 2175 
0:0:0:269, 2139 
0:0:0:285, 2112 
0:0:0:301, 2108 
0:0:0:317, 2112 
0:0:0:332, 2110 
0:0:0:348, 2114 
0:0:0:364, 2100 
0:0:0:380, 2078 
0:0:0:395, 2030 
0:0:0:411, 1969 
0:0:0:426, 1930 
0:0:0:441, 1880 
0:0:0:456, 1830 
0:0:0:472, 1772 
0:0:0:487, 1731 
0:0:0:503, 1695 
0:0:0:519, 1648 
0:0:0:535, 1624 
0:0:0:551, 1583 
0:0:0:567, 1560 
0:0:0:583, 1538 
0:0:0:599, 1518 
0:0:0:614, 1505 
0:0:0:629, 1480 
0:0:0:644, 1454 
0:0:0:660, 1445 
0:0:0:675, 1437 
0:0:0:690, 1441 
0:0:0:705, 1466 
0:0:0:720, 1524 
0:0:0:735, 1673 
0:0:0:751, 1916 
0:0:0:767, 2279 
0:0:0:783, 2500 
0:0:0:799, 2767 
0:0:0:815, 2990 
0:0:0:831, 3109 
0:0:0:847, 3157 
0:0:0:862, 3165 
0:0:0:878, 3142 
0:0:0:893, 3072 
0:0:0:908, 2999 
0:0:0:923, 2897 
0:0:0:938, 2808 
0:0:0:954, 2656 
0:0:0:970, 2549 
0:0:0:986, 2405 
0:0:1:2, 2298 
0:0:1:18, 2233 
0:0:1:34, 2195 
0:0:1:50, 2160 
0:0:1:66, 2116 
0:0:1:82, 2097 
0:0:1:97, 2091 
0:0:1:113, 2084 
0:0:1:129, 2075 
0:0:1:144, 2043 
0:0:1:159, 2023 
0:0:1:174, 1995 
0:0:1:189, 1955 
0:0:1:204, 1918 
0:0:1:220, 1904 
0:0:1:236, 1865 
0:0:1:251, 1838 
0:0:1:267, 1802 
0:0:1:283, 1757 
0:0:1:298, 1719 
0:0:1:314, 1685 
0:0:1:329, 1664 
0:0:1:344, 1634 
0:0:1:359, 1612 
0:0:1:374, 1582 
0:0:1:390, 1561 
0:0:1:405, 1549 
0:0:1:421, 1530 
0:0:1:437, 1511 
0:0:1:453, 1488 
0:0:1:469, 1462 
0:0:1:485, 1445 
0:0:1:501, 1443 
0:0:1:517, 1439 
0:0:1:532, 1438 
0:0:1:547, 1433 
0:0:1:563, 1418 
0:0:1:579, 1405 
0:0:1:595, 1424 
0:0:1:610, 1497 
0:0:1:625, 1659 
0:0:1:641, 1910 
0:0:1:657, 2204 
0:0:1:673, 2513 
0:0:1:689, 2790 
0:0:1:704, 3037 
0:0:1:719, 3162 
0:0:1:735, 3195 
0:0:1:751, 3194 
0:0:1:766, 3149 
0:0:1:781, 3065 
0:0:1:797, 2976 
0:0:1:813, 2888 
0:0:1:828, 2823 
0:0:1:844, 2728 
0:0:1:859, 2617 
0:0:1:875, 2503 
0:0:1:890, 2388 
0:0:1:905, 2292 
0:0:1:921, 2236 
0:0:1:936, 2189 
0:0:1:952, 2153 
0:0:1:967, 2140 
0:0:1:982, 2132 
0:0:1:998, 2123 
0:0:2:14, 2085 
0:0:2:30, 2060 
0:0:2:46, 2014 
0:0:2:62, 1950 
0:0:2:77, 1911 
0:0:2:92, 1898 
0:0:2:107, 1854 
0:0:2:123, 1832 
0:0:2:138, 1812 
0:0:2:152, 1784 
0:0:2:168, 1747 
0:0:2:183, 1675 
0:0:2:198, 1612 
0:0:2:214, 1561 
0:0:2:230, 1521 
0:0:2:245, 1489 
0:0:2:260, 1479 
0:0:2:276, 1462 
0:0:2:291, 1434 
0:0:2:307, 1405 
0:0:2:322, 1377 
0:0:2:337, 1372 
0:0:2:352, 1368 
0:0:2:368, 1352 
0:0:2:383, 1343 
0:0:2:398, 1333 
0:0:2:414, 1322 
0:0:2:430, 1307 
0:0:2:446, 1300 
0:0:2:461, 1350 
0:0:2:476, 1477 
0:0:2:492, 1738 
0:0:2:507, 2018 
0:0:2:522, 2244 
0:0:2:537, 2321 
0:0:2:552, 2396 
0:0:2:567, 2544 
0:0:2:582, 2748 
0:0:2:598, 2992 
0:0:2:614, 3091 
0:0:2:629, 3128 
0:0:2:644, 3147 
0:0:2:659, 3134 
0:0:2:675, 3070 
0:0:2:691, 2973 
0:0:2:706, 2874 
0:0:2:722, 2779 
0:0:2:738, 2657 
0:0:2:754, 2582 
0:0:2:770, 2447 
0:0:2:785, 2364 
0:0:2:800, 2265 
0:0:2:816, 2190 
0:0:2:831, 2136 
0:0:2:847, 2072 
0:0:2:862, 2034 
0:0:2:878, 2012 
0:0:2:893, 1996 
0:0:2:909, 1981 
0:0:2:925, 1966 
0:0:2:941, 1951 
0:0:2:957, 1917 
0:0:2:973, 1874 
0:0:2:988, 1820 
0:0:3:4, 1768 
0:0:3:19, 1706 
0:0:3:34, 1664 
0:0:3:50, 1609 
0:0:3:65, 1578 
0:0:3:80, 1554 
0:0:3:95, 1518 
0:0:3:111, 1481 
0:0:3:127, 1455 
0:0:3:143, 1425 
0:0:3:159, 1415 
0:0:3:175, 1401 
0:0:3:190, 1394 
0:0:3:205, 1386 
0:0:3:220, 1377 
0:0:3:236, 1359 
0:0:3:251, 1373 
0:0:3:266, 1400 
0:0:3:281, 1486 
0:0:3:297, 1651 
0:0:3:313, 1951 
0:0:3:329, 2240 
0:0:3:345, 2522 
0:0:3:360, 2765 
0:0:3:375, 2966 
0:0:3:391, 3061 
0:0:3:406, 3065 
0:0:3:422, 3014 
0:0:3:437, 2918 
0:0:3:453, 2806 
0:0:3:469, 2666 
0:0:3:484, 2570 
0:0:3:500, 2474 
0:0:3:516, 2370 
0:0:3:532, 2255 
0:0:3:547, 2158 
0:0:3:562, 2088 
0:0:3:578, 2039 
0:0:3:594, 2001 
0:0:3:609, 1991 
0:0:3:625, 1991 
0:0:3:641, 1987 
0:0:3:657, 1988 
0:0:3:673, 1956 
0:0:3:689, 1924 
0:0:3:705, 1871 
0:0:3:721, 1807 
0:0:3:737, 1772 
0:0:3:753, 1722 
0:0:3:768, 1684 
0:0:3:784, 1638 
0:0:3:799, 1578 
0:0:3:814, 1551 
0:0:3:830, 1533 
0:0:3:846, 1506 
0:0:3:862, 1495 
0:0:3:878, 1478 
0:0:3:894, 1460 
0:0:3:910, 1450 
0:0:3:925, 1432 
0:0:3:940, 1421 
0:0:3:956, 1406 
0:0:3:972, 1388 
0:0:3:988, 1382 
0:0:4:3, 1435 
0:0:4:19, 1578 
0:0:4:35, 1751 
0:0:4:50, 2036 
0:0:4:65, 2344 
0:0:4:80, 2646 
0:0:4:95, 2929 
0:0:4:110, 3092 
0:0:4:126, 3176 
0:0:4:141, 3191 
0:0:4:157, 3134 
0:0:4:173, 3050 
0:0:4:188, 2932 
0:0:4:203, 2830 
0:0:4:219, 2712 
0:0:4:235, 2596 
0:0:4:251, 2472 
0:0:4:266, 2356 
0:0:4:281, 2231 
0:0:4:297, 2156 
0:0:4:313, 2087 
0:0:4:329, 2064 
0:0:4:345, 2043 
0:0:4:361, 2024 
0:0:4:377, 1997 
0:0:4:393, 1969 
0:0:4:409, 1941 
0:0:4:425, 1888 
0:0:4:440, 1852 
0:0:4:456, 1811 
0:0:4:471, 1762 
0:0:4:486, 1721 
0:0:4:501, 1680 
0:0:4:516, 1646 
0:0:4:531, 1612 
0:0:4:546, 1579 
0:0:4:561, 1538 
0:0:4:576, 1515 
0:0:4:591, 1481 
0:0:4:607, 1459 
0:0:4:623, 1442 
0:0:4:639, 1407 
0:0:4:655, 1388 
0:0:4:671, 1374 
0:0:4:687, 1364 
0:0:4:702, 1350 
0:0:4:717, 1349 
0:0:4:732, 1342 
0:0:4:747, 1331 
0:0:4:763, 1353 
0:0:4:778, 1435 
0:0:4:794, 1616 
0:0:4:810, 1986 
0:0:4:825, 2325 
0:0:4:840, 2671 
0:0:4:856, 2959 
0:0:4:872, 3205 
0:0:4:887, 3258 
0:0:4:902, 3257 
0:0:4:918, 3208 
0:0:4:934, 3099 
0:0:4:950, 2990 
0:0:4:965, 2908 
0:0:4:980, 2784 
0:0:4:995, 2665 
0:0:5:11, 2553 
0:0:5:27, 2434 
0:0:5:43, 2322 
0:0:5:59, 2215 
0:0:5:74, 2134 
0:0:5:90, 2075 
0:0:5:105, 2044 
0:0:5:121, 2033 
0:0:5:137, 2023 
0:0:5:153, 2018 
0:0:5:169, 2003 
0:0:5:185, 1969 
0:0:5:200, 1942 
0:0:5:215, 1909 
0:0:5:231, 1851 
0:0:5:247, 1818 
0:0:5:263, 1763 
0:0:5:279, 1698 
0:0:5:295, 1666 
0:0:5:311, 1608 
0:0:5:327, 1556 
0:0:5:343, 1506 
0:0:5:359, 1482 
0:0:5:375, 1459 
0:0:5:390, 1434 
0:0:5:405, 1401 
0:0:5:421, 1365 
0:0:5:436, 1339 
0:0:5:452, 1317 
0:0:5:468, 1309 
0:0:5:484, 1309 
0:0:5:500, 1309 
0:0:5:516, 1321 
0:0:5:532, 1317 
0:0:5:547, 1305 
0:0:5:562, 1300 
0:0:5:577, 1300 
0:0:5:593, 1332 
0:0:5:609, 1439 
0:0:5:625, 1698 
0:0:5:640, 2003 
0:0:5:656, 2351 
0:0:5:671, 2680 
0:0:5:686, 3057 
0:0:5:701, 3179 
0:0:5:717, 3249 
0:0:5:733, 3225 
0:0:5:749, 3143 
0:0:5:765, 3030 
0:0:5:781, 2897 
0:0:5:797, 2751 
0:0:5:812, 2641 
0:0:5:828, 2522 
0:0:5:844, 2384 
0:0:5:859, 2280 
0:0:5:875, 2182 
0:0:5:890, 2105 
0:0:5:905, 2075 
0:0:5:920, 2041 
0:0:5:936, 2026 
0:0:5:951, 2019 
0:0:5:967, 2017 
0:0:5:983, 2007 
0:0:5:999, 1974 
0:0:6:14, 1934 
0:0:6:29, 1911 
0:0:6:45, 1869 
0:0:6:60, 1813 
0:0:6:76, 1763 
0:0:6:92, 1708 
0:0:6:107, 1670 
0:0:6:123, 1619 
0:0:6:138, 1575 
0:0:6:153, 1533 
0:0:6:169, 1489 
0:0:6:184, 1455 
0:0:6:199, 1421 
0:0:6:215, 1403 
0:0:6:230, 1402 
0:0:6:246, 1401 
0:0:6:262, 1398 
0:0:6:278, 1399 
0:0:6:293, 1392 
0:0:6:309, 1386 
0:0:6:325, 1366 
0:0:6:341, 1347 
0:0:6:356, 1351 
0:0:6:371, 1413 
0:0:6:386, 1574 
0:0:6:401, 1822 
0:0:6:417, 2224 
0:0:6:433, 2626 
0:0:6:449, 2915 
0:0:6:464, 3116 
0:0:6:479, 3171 
0:0:6:494, 3156 
0:0:6:510, 3092 
0:0:6:526, 3010 
0:0:6:541, 2908 
0:0:6:557, 2809 
0:0:6:573, 2708 
0:0:6:589, 2610 
0:0:6:605, 2506 
0:0:6:620, 2389 
0:0:6:636, 2263 
0:0:6:652, 2189 
0:0:6:668, 2123 
0:0:6:684, 2087 
0:0:6:699, 2056 
0:0:6:714, 2041 
0:0:6:729, 2030 
0:0:6:745, 2005 
0:0:6:761, 1979 
0:0:6:777, 1926 
0:0:6:793, 1888 
0:0:6:809, 1824 
0:0:6:825, 1768 
0:0:6:840, 1707 
0:0:6:855, 1656 
0:0:6:871, 1592 
0:0:6:887, 1535 
0:0:6:902, 1494 
0:0:6:918, 1429 
0:0:6:934, 1378 
0:0:6:950, 1342 
0:0:6:966, 1293 
0:0:6:982, 1266 
0:0:6:998, 1254 
0:0:7:14, 1228 
0:0:7:30, 1187 
0:0:7:46, 1144 
0:0:7:62, 1108 
0:0:7:77, 1084 
0:0:7:92, 1074 
0:0:7:107, 1071 
0:0:7:123, 1059 
0:0:7:139, 1050 
0:0:7:155, 1033 
0:0:7:171, 1041 
0:0:7:187, 1087 
0:0:7:202, 1225 
0:0:7:218, 1556 
0:0:7:234, 1900 
0:0:7:249, 2265 
0:0:7:265, 2658 
0:0:7:281, 2971 
0:0:7:297, 3070 
0:0:7:312, 3104 
0:0:7:327, 3074 
0:0:7:343, 2978 
0:0:7:359, 2908 
0:0:7:375, 2802 
0:0:7:390, 2671 
0:0:7:406, 2576 
0:0:7:422, 2452 
0:0:7:438, 2343 
0:0:7:453, 2230 
0:0:7:468, 2136 
0:0:7:484, 2097 
0:0:7:499, 2088 
0:0:7:515, 2102 
0:0:7:531, 2111 
0:0:7:546, 2123 
0:0:7:561, 2114 
0:0:7:577, 2095 
0:0:7:593, 2060 
0:0:7:609, 2017 
0:0:7:625, 1957 
0:0:7:641, 1876 
0:0:7:657, 1824 
0:0:7:673, 1757 
0:0:7:688, 1705 
0:0:7:703, 1663 
0:0:7:719, 1597 
0:0:7:735, 1557 
0:0:7:751, 1494 
0:0:7:766, 1454 
0:0:7:781, 1406 
0:0:7:796, 1370 
0:0:7:812, 1335 
0:0:7:827, 1325 
0:0:7:842, 1311 
0:0:7:858, 1289 
0:0:7:873, 1277 
0:0:7:890, 1262 
0:0:7:906, 1254 
0:0:7:922, 1248 
0:0:7:938, 1255 
0:0:7:953, 1315 
0:0:7:968, 1445 
0:0:7:984, 1676 
0:0:7:999, 1968 
0:0:8:14, 2282 
0:0:8:29, 2514 
0:0:8:45, 2866 
0:0:8:60, 3026 
0:0:8:75, 3106 
0:0:8:90, 3100 
0:0:8:106, 3046 
0:0:8:122, 2961 
0:0:8:138, 2862 
0:0:8:154, 2768 
0:0:8:170, 2678 
0:0:8:185, 2590 
0:0:8:201, 2518 
0:0:8:216, 2391 
0:0:8:232, 2279 
0:0:8:247, 2165 
0:0:8:262, 2078 
0:0:8:277, 2013 
0:0:8:293, 1978 
0:0:8:309, 1962 
0:0:8:325, 1958 
0:0:8:340, 1931 
0:0:8:356, 1902 
0:0:8:372, 1871 
0:0:8:388, 1842 
0:0:8:403, 1818 
0:0:8:419, 1760 
0:0:8:434, 1709 
0:0:8:450, 1660 
0:0:8:466, 1592 
0:0:8:481, 1526 
0:0:8:496, 1456 
0:0:8:511, 1391 
0:0:8:528, 1345 
0:0:8:543, 1317 
0:0:8:559, 1296 
0:0:8:575, 1292 
0:0:8:591, 1282 
0:0:8:607, 1279 
0:0:8:622, 1279 
0:0:8:638, 1276 
0:0:8:654, 1272 
0:0:8:670, 1273 
0:0:8:686, 1274 
0:0:8:702, 1269 
0:0:8:717, 1265 
0:0:8:732, 1256 
0:0:8:747, 1279 
0:0:8:763, 1395 
0:0:8:778, 1578 
0:0:8:793, 1771 
0:0:8:809, 2083 
0:0:8:825, 2425 
0:0:8:840, 2759 
0:0:8:855, 3070 
0:0:8:871, 3251 
0:0:8:887, 3376 
0:0:8:902, 3404 
0:0:8:918, 3378 
0:0:8:934, 3289 
0:0:8:949, 3190 
0:0:8:964, 3074 
0:0:8:979, 2946 
0:0:8:995, 2804 
0:0:9:10, 2663 
0:0:9:26, 2566 
0:0:9:42, 2452 
0:0:9:57, 2351 
0:0:9:72, 2290 
0:0:9:87, 2231 
0:0:9:102, 2194 
0:0:9:118, 2141 
0:0:9:133, 2094 
0:0:9:149, 2026 
0:0:9:165, 1977 
0:0:9:180, 1943 
0:0:9:195, 1874 
0:0:9:211, 1830 
0:0:9:227, 1766 
0:0:9:243, 1700 
0:0:9:259, 1637 
0:0:9:275, 1582 
0:0:9:291, 1517 
0:0:9:306, 1464 
0:0:9:322, 1418 
0:0:9:338, 1373 
0:0:9:354, 1337 
0:0:9:369, 1299 
0:0:9:385, 1266 
0:0:9:401, 1242 
0:0:9:416, 1215 
0:0:9:431, 1192 
0:0:9:447, 1169 
0:0:9:463, 1174 
0:0:9:479, 1190 
0:0:9:495, 1189 
0:0:9:511, 1192 
0:0:9:526, 1212 
0:0:9:542, 1312 
0:0:9:558, 1488 
0:0:9:574, 1732 
0:0:9:590, 2113 
0:0:9:606, 2412 
0:0:9:622, 2709 
0:0:9:638, 2884 
0:0:9:653, 3038 
0:0:9:668, 3089 
0:0:9:684, 3091 
0:0:9:699, 3025 
0:0:9:715, 2936 
0:0:9:730, 2829 
0:0:9:745, 2722 
0:0:9:761, 2600 
0:0:9:777, 2458 
0:0:9:793, 2350 
0:0:9:809, 2237 
0:0:9:825, 2188 
0:0:9:840, 2139 
0:0:9:856, 2067 
0:0:9:872, 2041 
0:0:9:887, 2032 
0:0:9:902, 2032 
0:0:9:918, 2022 
0:0:9:934, 1999 
0:0:9:950, 1975 
0:0:9:966, 1915 
0:0:9:982, 1858 
0:0:9:997, 1789 
0:0:10:13, 1727 
0:0:10:28, 1686 
0:0:10:44, 1642 
0:0:10:59, 1604 
0:0:10:75, 1563 
0:0:10:91, 1513 
0:0:10:107, 1476 
0:0:10:122, 1454 
0:0:10:137, 1433 
0:0:10:153, 1405 
0:0:10:169, 1383 
0:0:10:184, 1359 
0:0:10:199, 1341 
0:0:10:215, 1336 
0:0:10:231, 1363 
0:0:10:246, 1422 
0:0:10:262, 1551 
0:0:10:278, 1806 
0:0:10:294, 2078 
0:0:10:311, 2428 
0:0:10:327, 2683 
0:0:10:343, 2901 
0:0:10:358, 3006 
0:0:10:373, 3053 
0:0:10:388, 3039 
0:0:10:403, 2979 
0:0:10:419, 2902 
0:0:10:435, 2803 
0:0:10:451, 2710 
0:0:10:466, 2631 
0:0:10:482, 2486 
0:0:10:497, 2369 
0:0:10:513, 2261 
0:0:10:529, 2149 
0:0:10:545, 2085 
0:0:10:561, 2037 
0:0:10:576, 2010 
0:0:10:591, 1996 
0:0:10:606, 1964 
0:0:10:621, 1931 
0:0:10:636, 1899 
0:0:10:652, 1840 
0:0:10:668, 1790 
0:0:10:684, 1739 
0:0:10:700, 1674 
0:0:10:716, 1642 
0:0:10:732, 1605 
0:0:10:747, 1556 
0:0:10:762, 1519 
0:0:10:778, 1483 
0:0:10:794, 1466 
0:0:10:809, 1445 
0:0:10:824, 1419 
0:0:10:839, 1400 
0:0:10:854, 1388 
0:0:10:870, 1373 
0:0:10:886, 1355 
0:0:10:902, 1333 
0:0:10:918, 1323 
0:0:10:934, 1343 
0:0:10:950, 1385 
0:0:10:966, 1477 
0:0:10:982, 1706 
0:0:10:998, 1964 
0:0:11:13, 2345 
0:0:11:28, 2564 
0:0:11:44, 2880 
0:0:11:59, 3050 
0:0:11:74, 3129 
0:0:11:89, 3144 
0:0:11:105, 3128 
0:0:11:121, 3051 
0:0:11:137, 2982 
0:0:11:152, 2905 
0:0:11:168, 2801 
0:0:11:184, 2680 
0:0:11:199, 2571 
0:0:11:215, 2462 
0:0:11:230, 2351 
0:0:11:246, 2280 
0:0:11:262, 2203 
0:0:11:278, 2163 
0:0:11:293, 2155 
0:0:11:308, 2150 
0:0:11:324, 2134 
0:0:11:339, 2122 
0:0:11:354, 2102 
0:0:11:370, 2069 
0:0:11:386, 2028 
0:0:11:401, 1966 
0:0:11:417, 1918 
0:0:11:433, 1847 
0:0:11:449, 1783 
0:0:11:465, 1739 
0:0:11:481, 1692 
0:0:11:497, 1639 
0:0:11:513, 1587 
0:0:11:528, 1543 
0:0:11:543, 1499 
0:0:11:559, 1466 
0:0:11:574, 1446 
0:0:11:589, 1420 
0:0:11:605, 1395 
0:0:11:621, 1357 
0:0:11:637, 1320 
0:0:11:653, 1299 
0:0:11:669, 1301 
0:0:11:685, 1382 
0:0:11:700, 1470 
0:0:11:715, 1643 
0:0:11:730, 1884 
0:0:11:745, 2155 
0:0:11:760, 2490 
0:0:11:775, 2730 
0:0:11:790, 2873 
0:0:11:806, 2944 
0:0:11:822, 2953 
0:0:11:838, 2929 
0:0:11:854, 2879 
0:0:11:869, 2807 
0:0:11:884, 2743 
0:0:11:899, 2659 
0:0:11:915, 2563 
0:0:11:931, 2443 
0:0:11:947, 2314 
0:0:11:963, 2235 
0:0:11:979, 2159 
0:0:11:994, 2114 
0:0:12:10, 2096 
0:0:12:26, 2082 
0:0:12:42, 2077 
0:0:12:58, 2060 
0:0:12:74, 2053 
0:0:12:89, 2041 
0:0:12:104, 2014 
0:0:12:120, 2000 
0:0:12:135, 1973 
0:0:12:151, 1928 
0:0:12:167, 1868 
0:0:12:183, 1819 
0:0:12:199, 1765 
0:0:12:215, 1723 
0:0:12:230, 1661 
0:0:12:245, 1633 
0:0:12:261, 1618 
0:0:12:276, 1587 
0:0:12:292, 1569 
0:0:12:307, 1545 
0:0:12:323, 1528 
0:0:12:339, 1511 
0:0:12:354, 1490 
0:0:12:370, 1498 
0:0:12:386, 1561 
0:0:12:402, 1667 
0:0:12:417, 1831 
0:0:12:432, 2031 
0:0:12:448, 2305 
0:0:12:463, 2497 
0:0:12:478, 2666 
0:0:12:494, 2748 
0:0:12:509, 2760 
0:0:12:525, 2741 
0:0:12:541, 2697 
0:0:12:557, 2641 
0:0:12:573, 2567 
0:0:12:589, 2480 
0:0:12:605, 2390 
0:0:12:621, 2270 
0:0:12:637, 2193 
0:0:12:653, 2126 
0:0:12:668, 2059 
0:0:12:683, 2015 
0:0:12:698, 1989 
0:0:12:713, 1986 
0:0:12:729, 1964 
0:0:12:745, 1953 
0:0:12:761, 1925 
0:0:12:776, 1896 
0:0:12:792, 1867 
0:0:12:809, 1828 
0:0:12:825, 1809 
0:0:12:841, 1787 
0:0:12:857, 1748 
0:0:12:873, 1709 
0:0:12:889, 1665 
0:0:12:904, 1610 
0:0:12:920, 1564 
0:0:12:935, 1538 
0:0:12:950, 1526 
0:0:12:966, 1518 
0:0:12:982, 1517 
0:0:12:997, 1521 
0:0:13:13, 1516 
0:0:13:29, 1521 
0:0:13:44, 1539 
0:0:13:60, 1590 
0:0:13:76, 1689 
0:0:13:92, 1840 
0:0:13:108, 2043 
0:0:13:124, 2323 
0:0:13:140, 2518 
0:0:13:156, 2650 
0:0:13:171, 2766 
0:0:13:186, 2806 
0:0:13:202, 2811 
0:0:13:218, 2784 
0:0:13:234, 2736 
0:0:13:250, 2655 
0:0:13:266, 2584 
0:0:13:282, 2478 
0:0:13:298, 2419 
0:0:13:313, 2343 
0:0:13:329, 2265 
0:0:13:345, 2191 
0:0:13:361, 2158 
0:0:13:377, 2131 
0:0:13:393, 2101 
0:0:13:408, 2083 
0:0:13:423, 2066 
0:0:13:439, 2070 
0:0:13:455, 2053 
0:0:13:471, 2025 
0:0:13:487, 1994 
0:0:13:503, 1939 
0:0:13:519, 1909 
0:0:13:535, 1874 
0:0:13:551, 1843 
0:0:13:567, 1821 
0:0:13:582, 1782 
0:0:13:597, 1745 
0:0:13:612, 1713 
0:0:13:628, 1677 
0:0:13:643, 1638 
0:0:13:658, 1599 
0:0:13:674, 1560 
0:0:13:690, 1540 
0:0:13:706, 1532 
0:0:13:722, 1528 
0:0:13:738, 1517 
0:0:13:754, 1575 
0:0:13:770, 1656 
0:0:13:785, 1825 
0:0:13:800, 2039 
0:0:13:816, 2331 
0:0:13:832, 2548 
0:0:13:847, 2734 
0:0:13:863, 2842 
0:0:13:878, 2875 
0:0:13:893, 2885 
0:0:13:909, 2870 
0:0:13:924, 2831 
0:0:13:940, 2795 
0:0:13:956, 2748 
0:0:13:972, 2675 
0:0:13:988, 2602 
0:0:14:3, 2513 
0:0:14:19, 2400 
0:0:14:35, 2300 
0:0:14:51, 2213 
0:0:14:66, 2149 
0:0:14:82, 2101 
0:0:14:97, 2092 
0:0:14:113, 2089 
0:0:14:128, 2080 
0:0:14:144, 2058 
0:0:14:160, 2013 
0:0:14:176, 1982 
0:0:14:192, 1941 
0:0:14:208, 1884 
0:0:14:224, 1830 
0:0:14:240, 1775 
0:0:14:256, 1705 
0:0:14:271, 1683 
0:0:14:287, 1633 
0:0:14:302, 1600 
0:0:14:317, 1568 
0:0:14:333, 1547 
0:0:14:348, 1524 
0:0:14:363, 1510 
0:0:14:379, 1497 
0:0:14:395, 1485 
0:0:14:411, 1478 
0:0:14:427, 1464 
0:0:14:443, 1446 
0:0:14:458, 1438 
0:0:14:473, 1447 
0:0:14:489, 1518 
0:0:14:504, 1645 
0:0:14:519, 1821 
0:0:14:535, 2094 
0:0:14:550, 2300 
0:0:14:566, 2519 
0:0:14:581, 2590 
0:0:14:596, 2630 
0:0:14:612, 2645 
0:0:14:628, 2629 
0:0:14:644, 2600 
0:0:14:660, 2549 
0:0:14:675, 2484 
0:0:14:691, 2414 
0:0:14:706, 2302 
0:0:14:722, 2210 
0:0:14:738, 2104 
0:0:14:754, 2008 
0:0:14:770, 1952 
0:0:14:786, 1930 
0:0:14:802, 1933 
0:0:14:817, 1940 
0:0:14:832, 1941 
0:0:14:847, 1933 
0:0:14:863, 1909 
0:0:14:879, 1876 
0:0:14:895, 1825 
0:0:14:910, 1785 
0:0:14:925, 1759 
0:0:14:941, 1719 
0:0:14:957, 1678 
0:0:14:973, 1640 
0:0:14:988, 1604 
0:0:15:4, 1563 
0:0:15:20, 1530 
0:0:15:36, 1515 
0:0:15:51, 1497 
0:0:15:66, 1466 
0:0:15:81, 1441 
0:0:15:97, 1415 
0:0:15:113, 1408 
0:0:15:128, 1410 
0:0:15:144, 1399 
0:0:15:160, 1381 
0:0:15:176, 1359 
0:0:15:191, 1343 
0:0:15:206, 1340 
0:0:15:222, 1375 
0:0:15:238, 1458 
0:0:15:254, 1629 
0:0:15:270, 1840 
0:0:15:285, 2059 
0:0:15:300, 2250 
0:0:15:315, 2429 
0:0:15:331, 2480 
0:0:15:345, 2514 
0:0:15:363, 2506 
0:0:15:379, 2469 
0:0:15:395, 2439 
0:0:15:411, 2394 
0:0:15:427, 2343 
0:0:15:443, 2280 
0:0:15:459, 2206 
0:0:15:474, 2161 
0:0:15:490, 2113 
0:0:15:506, 2042 
0:0:15:521, 1999 
0:0:15:536, 1961 
0:0:15:552, 1963 
0:0:15:568, 1955 
0:0:15:584, 1933 
0:0:15:599, 1921 
0:0:15:615, 1905 
0:0:15:630, 1882 
0:0:15:645, 1866 
0:0:15:661, 1838 
0:0:15:676, 1792 
0:0:15:691, 1762 
0:0:15:706, 1730 
0:0:15:722, 1698 
0:0:15:738, 1667 
0:0:15:753, 1630 
0:0:15:768, 1609 
0:0:15:784, 1588 
0:0:15:800, 1558 
0:0:15:816, 1540 
0:0:15:832, 1522 
0:0:15:847, 1506 
0:0:15:862, 1501 
0:0:15:878, 1490 
0:0:15:893, 1479 
0:0:15:908, 1480 
0:0:15:923, 1479 
0:0:15:939, 1459 
0:0:15:955, 1469 
0:0:15:971, 1496 
0:0:15:986, 1559 
0:0:16:2, 1709 
0:0:16:18, 1833 
0:0:16:34, 2033 
0:0:16:50, 2219 
0:0:16:66, 2408 
0:0:16:81, 2474 
0:0:16:97, 2523 
0:0:16:112, 2548 
0:0:16:127, 2545 
0:0:16:142, 2519 
0:0:16:158, 2483 
0:0:16:174, 2424 
0:0:16:190, 2359 
0:0:16:206, 2284 
0:0:16:221, 2248 
0:0:16:236, 2176 
0:0:16:252, 2110 
0:0:16:273, 2048 
0:0:16:283, 2022 
0:0:16:299, 2012 
0:0:16:315, 2012 
0:0:16:331, 2013 
0:0:16:346, 2011 
0:0:16:361, 1993 
0:0:16:377, 1959 
0:0:16:393, 1930 
0:0:16:409, 1875 
0:0:16:425, 1855 
0:0:16:441, 1820 
0:0:16:456, 1776 
0:0:16:471, 1750 
0:0:16:487, 1705 
0:0:16:502, 1688 
0:0:16:518, 1674 
0:0:16:533, 1646 
0:0:16:548, 1626 
0:0:16:564, 1587 
0:0:16:580, 1565 
0:0:16:596, 1541 
0:0:16:612, 1526 
0:0:16:628, 1504 
0:0:16:643, 1494 
0:0:16:659, 1484 
0:0:16:675, 1485 
0:0:16:690, 1487 
0:0:16:705, 1479 
0:0:16:721, 1483 
0:0:16:737, 1518 
0:0:16:753, 1576 
0:0:16:769, 1743 
0:0:16:785, 1935 
0:0:16:801, 2150 
0:0:16:817, 2352 
0:0:16:833, 2548 
0:0:16:849, 2659 
0:0:16:865, 2719 
0:0:16:881, 2745 
0:0:16:897, 2729 
0:0:16:912, 2705 
0:0:16:927, 2670 
0:0:16:942, 2634 
0:0:16:958, 2585 
0:0:16:974, 2514 
0:0:16:990, 2443 
0:0:17:6, 2407 
0:0:17:22, 2323 
0:0:17:38, 2265 
0:0:17:53, 2194 
0:0:17:69, 2140 
0:0:17:85, 2118 
0:0:17:100, 2103 
0:0:17:116, 2073 
0:0:17:131, 2040 
0:0:17:147, 2000 
0:0:17:162, 1966 
0:0:17:177, 1939 
0:0:17:192, 1900 
0:0:17:208, 1855 
0:0:17:224, 1802 
0:0:17:240, 1752 
0:0:17:256, 1721 
0:0:17:272, 1694 
0:0:17:287, 1649 
0:0:17:302, 1620 
0:0:17:318, 1593 
0:0:17:334, 1561 
0:0:17:350, 1546 
0:0:17:366, 1532 
0:0:17:381, 1508 
0:0:17:396, 1478 
0:0:17:412, 1455 
0:0:17:428, 1444 
0:0:17:444, 1435 
0:0:17:460, 1431 
0:0:17:475, 1428 
0:0:17:490, 1427 
0:0:17:506, 1440 
0:0:17:522, 1449 
0:0:17:538, 1439 
0:0:17:554, 1437 
0:0:17:569, 1441 
0:0:17:584, 1474 
0:0:17:599, 1563 
0:0:17:615, 1737 
0:0:17:630, 1918 
0:0:17:645, 2122 
0:0:17:660, 2310 
0:0:17:676, 2473 
0:0:17:692, 2569 
0:0:17:708, 2625 
0:0:17:724, 2643 
0:0:17:740, 2643 
0:0:17:756, 2632 
0:0:17:772, 2601 
0:0:17:788, 2568 
0:0:17:803, 2516 
0:0:17:819, 2447 
0:0:17:835, 2375 
0:0:17:851, 2292 
0:0:17:866, 2292 
0:0:17:881, 2248 
0:0:17:897, 2183 
0:0:17:913, 2118 
0:0:17:928, 2068 
0:0:17:944, 2047 
0:0:17:960, 2048 
0:0:17:976, 2044 
0:0:17:992, 2034 
0:0:18:8, 2040 
0:0:18:24, 2035 
0:0:18:39, 2013 
0:0:18:55, 2001 
0:0:18:71, 1986 
0:0:18:87, 1960 
0:0:18:102, 1920 
0:0:18:117, 1884 
0:0:18:132, 1840 
0:0:18:148, 1798 
0:0:18:164, 1751 
0:0:18:180, 1697 
0:0:18:196, 1666 
0:0:18:211, 1619 
0:0:18:227, 1595 
0:0:18:243, 1562 
0:0:18:259, 1528 
0:0:18:274, 1508 
0:0:18:289, 1496 
0:0:18:305, 1464 
0:0:18:321, 1435 
0:0:18:336, 1406 
0:0:18:351, 1392 
0:0:18:367, 1409 
0:0:18:383, 1451 
0:0:18:399, 1566 
0:0:18:415, 1719 
0:0:18:431, 1973 
0:0:18:447, 2180 
0:0:18:463, 2412 
0:0:18:478, 2551 
0:0:18:494, 2618 
0:0:18:509, 2645 
0:0:18:524, 2647 
0:0:18:540, 2627 
0:0:18:556, 2588 
0:0:18:571, 2547 
0:0:18:586, 2486 
0:0:18:602, 2433 
0:0:18:617, 2372 
0:0:18:632, 2303 
0:0:18:647, 2241 
0:0:18:662, 2167 
0:0:18:677, 2101 
0:0:18:693, 2033 
0:0:18:709, 2003 
0:0:18:725, 1977 
0:0:18:741, 1977 
0:0:18:757, 1953 
0:0:18:773, 1929 
0:0:18:789, 1904 
0:0:18:804, 1874 
0:0:18:819, 1838 
0:0:18:834, 1811 
0:0:18:850, 1782 
0:0:18:866, 1742 
0:0:18:882, 1711 
0:0:18:898, 1677 
0:0:18:914, 1639 
0:0:18:930, 1613 
0:0:18:946, 1578 
0:0:18:962, 1553 
0:0:18:978, 1534 
0:0:18:994, 1500 
0:0:19:9, 1481 
0:0:19:25, 1457 
0:0:19:40, 1416 
0:0:19:55, 1370 
0:0:19:71, 1336 
0:0:19:87, 1317 
0:0:19:103, 1301 
0:0:19:119, 1283 
0:0:19:134, 1278 
0:0:19:150, 1270 
0:0:19:166, 1275 
0:0:19:182, 1280 
0:0:19:198, 1284 
0:0:19:214, 1325 
0:0:19:230, 1394 
0:0:19:246, 1539 
0:0:19:262, 1746 
0:0:19:277, 1945 
0:0:19:292, 2134 
0:0:19:307, 2262 
0:0:19:323, 2422 
0:0:19:339, 2467 
0:0:19:355, 2495 
0:0:19:371, 2490 
0:0:19:387, 2476 
0:0:19:403, 2454 
0:0:19:419, 2423 
0:0:19:435, 2386 
0:0:19:450, 2316 
0:0:19:466, 2250 
0:0:19:482, 2189 
0:0:19:498, 2118 
0:0:19:514, 2082 
0:0:19:529, 2069 
0:0:19:543, 2052 
0:0:19:559, 2032 
0:0:19:575, 2010 
0:0:19:591, 1994 
0:0:19:607, 1987 
0:0:19:623, 1952 
0:0:19:638, 1922 
0:0:19:654, 1882 
0:0:19:670, 1827 
0:0:19:686, 1808 
0:0:19:701, 1788 
0:0:19:717, 1768 
0:0:19:733, 1748 
0:0:19:748, 1729 
0:0:19:763, 1704 
0:0:19:779, 1682 
0:0:19:795, 1664 
0:0:19:811, 1654 
0:0:19:827, 1643 
0:0:19:843, 1629 
0:0:19:859, 1624 
0:0:19:874, 1615 
0:0:19:890, 1613 
0:0:19:905, 1616 
0:0:19:921, 1615 
0:0:19:936, 1620 
0:0:19:952, 1616 
0:0:19:968, 1600 
0:0:19:983, 1569 
0:0:19:998, 1553 
0:0:20:14, 1531 
0:0:20:30, 1534 
0:0:20:46, 1590 
0:0:20:62, 1689 
0:0:20:77, 1866 
0:0:20:88, 1968 
0:0:20:108, 2224 
0:0:20:123, 2444 
0:0:20:140, 2549 
0:0:20:151, 2588 
0:0:20:172, 2648 
0:0:20:183, 2652 
0:0:20:203, 2639 
0:0:20:218, 2598 
0:0:20:233, 2534 
0:0:20:249, 2439 
0:0:20:265, 2369 
0:0:20:281, 2288 
0:0:20:297, 2246 
0:0:20:312, 2185 
0:0:20:328, 2102 
0:0:20:344, 2056 
0:0:20:360, 2032 
0:0:20:376, 2004 
0:0:20:392, 1979 
0:0:20:408, 1969 
0:0:20:424, 1963 
0:0:20:440, 1956 
0:0:20:455, 1945 
0:0:20:467, 1931 
0:0:20:485, 1919 
0:0:20:500, 1889 
0:0:20:511, 1880 
0:0:20:531, 1829 
0:0:20:547, 1800 
0:0:20:563, 1776 
0:0:20:579, 1740 
0:0:20:595, 1709 
0:0:20:610, 1662 
0:0:20:626, 1640 
0:0:20:641, 1609 
0:0:20:657, 1585 
0:0:20:672, 1575 
0:0:20:687, 1560 
0:0:20:703, 1552 
0:0:20:719, 1542 
0:0:20:734, 1536 
0:0:20:750, 1539 
0:0:20:765, 1534 
0:0:20:781, 1531 
0:0:20:796, 1530 
0:0:20:811, 1519 
0:0:20:827, 1497 
0:0:20:843, 1478 
0:0:20:859, 1503 
0:0:20:875, 1612 
0:0:20:891, 1704 
0:0:20:906, 1862 
0:0:20:921, 2097 
0:0:20:936, 2252 
0:0:20:951, 2383 
0:0:20:967, 2425 
0:0:20:982, 2441 
0:0:20:998, 2426 
0:0:21:14, 2384 
0:0:21:30, 2330 
0:0:21:46, 2270 
0:0:21:61, 2199 
0:0:21:76, 2157 
0:0:21:92, 2090 
0:0:21:107, 2035 
0:0:21:123, 1969 
0:0:21:139, 1923 
0:0:21:154, 1901 
0:0:21:169, 1876 
0:0:21:185, 1857 
0:0:21:202, 1845 
0:0:21:218, 1844 
0:0:21:234, 1862 
0:0:21:249, 1864 
0:0:21:264, 1854 
0:0:21:279, 1831 
0:0:21:294, 1803 
0:0:21:310, 1779 
0:0:21:325, 1744 
0:0:21:341, 1710 
0:0:21:356, 1673 
0:0:21:371, 1635 
0:0:21:386, 1615 
0:0:21:401, 1598 
0:0:21:417, 1578 
0:0:21:432, 1564 
0:0:21:448, 1566 
0:0:21:464, 1558 
0:0:21:480, 1553 
0:0:21:496, 1553 
0:0:21:512, 1543 
0:0:21:527, 1530 
0:0:21:543, 1520 
0:0:21:559, 1507 
0:0:21:575, 1479 
0:0:21:591, 1457 
0:0:21:606, 1432 
0:0:21:621, 1413 
0:0:21:636, 1422 
0:0:21:652, 1422 
0:0:21:668, 1479 
0:0:21:684, 1576 
0:0:21:700, 1727 
0:0:21:717, 1855 
0:0:21:733, 1987 
0:0:21:749, 2178 
0:0:21:765, 2273 
0:0:21:780, 2312 
0:0:21:796, 2314 
0:0:21:811, 2284 
0:0:21:826, 2230 
0:0:21:842, 2170 
0:0:21:857, 2116 
0:0:21:872, 2076 
0:0:21:887, 2028 
0:0:21:903, 1976 
0:0:21:919, 1920 
0:0:21:935, 1886 
0:0:21:951, 1887 
0:0:21:967, 1883 
0:0:21:983, 1885 
0:0:21:998, 1880 
0:0:22:13, 1868 
0:0:22:29, 1860 
0:0:22:44, 1850 
0:0:22:59, 1834 
0:0:22:75, 1814 
0:0:22:90, 1797 
0:0:22:106, 1761 
0:0:22:122, 1739 
0:0:22:138, 1713 
0:0:22:154, 1692 
0:0:22:170, 1670 
0:0:22:185, 1645 
0:0:22:201, 1628 
0:0:22:217, 1616 
0:0:22:232, 1616 
0:0:22:247, 1597 
0:0:22:263, 1572 
0:0:22:279, 1545 
0:0:22:295, 1520 
0:0:22:311, 1514 
0:0:22:326, 1511 
0:0:22:341, 1515 
0:0:22:356, 1530 
0:0:22:372, 1561 
0:0:22:387, 1621 
0:0:22:403, 1685 
0:0:22:419, 1810 
0:0:22:434, 1935 
0:0:22:450, 2142 
0:0:22:466, 2251 
0:0:22:482, 2336 
0:0:22:498, 2414 
0:0:22:513, 2447 
0:0:22:529, 2439 
0:0:22:545, 2410 
0:0:22:560, 2371 
0:0:22:575, 2315 
0:0:22:591, 2260 
0:0:22:607, 2213 
0:0:22:623, 2136 
0:0:22:639, 2078 
0:0:22:655, 2022 
0:0:22:671, 1985 
0:0:22:686, 1947 
0:0:22:701, 1937 
0:0:22:717, 1925 
0:0:22:733, 1906 
0:0:22:748, 1895 
0:0:22:763, 1884 
0:0:22:778, 1874 
0:0:22:793, 1862 
0:0:22:808, 1842 
0:0:22:824, 1794 
0:0:22:840, 1749 
0:0:22:856, 1707 
0:0:22:872, 1669 
0:0:22:887, 1650 
0:0:22:902, 1628 
0:0:22:918, 1611 
0:0:22:934, 1584 
0:0:22:949, 1562 
0:0:22:964, 1545 
0:0:22:980, 1528 
0:0:22:996, 1512 
0:0:23:12, 1512 
0:0:23:27, 1506 
0:0:23:42, 1505 
0:0:23:57, 1498 
0:0:23:73, 1503 
0:0:23:89, 1529 
0:0:23:104, 1615 
0:0:23:120, 1739 
0:0:23:136, 1897 
0:0:23:152, 2122 
0:0:23:168, 2278 
0:0:23:184, 2427 
0:0:23:199, 2473 
0:0:23:215, 2482 
0:0:23:231, 2485 
0:0:23:247, 2459 
0:0:23:262, 2417 
0:0:23:277, 2372 
0:0:23:292, 2319 
0:0:23:307, 2268 
0:0:23:323, 2211 
0:0:23:339, 2158 
0:0:23:354, 2118 
0:0:23:370, 2075 
0:0:23:386, 2048 
0:0:23:401, 2039 
0:0:23:416, 2028 
0:0:23:432, 2030 
0:0:23:448, 2025 
0:0:23:463, 2014 
0:0:23:478, 1997 
0:0:23:493, 1984 
0:0:23:509, 1968 
0:0:23:525, 1958 
0:0:23:540, 1940 
0:0:23:556, 1928 
0:0:23:572, 1911 
0:0:23:587, 1894 
0:0:23:602, 1868 
0:0:23:618, 1825 
0:0:23:634, 1784 
0:0:23:650, 1738 
0:0:23:666, 1694 
0:0:23:682, 1674 
0:0:23:697, 1643 
0:0:23:713, 1609 
0:0:23:728, 1590 
0:0:23:743, 1567 
0:0:23:759, 1555 
0:0:23:774, 1562 
0:0:23:790, 1608 
0:0:23:806, 1717 
0:0:23:822, 1951 
0:0:23:838, 2169 
0:0:23:854, 2370 
0:0:23:869, 2503 
0:0:23:885, 2653 
0:0:23:901, 2711 
0:0:23:916, 2714 
0:0:23:932, 2675 
0:0:23:948, 2635 
0:0:23:963, 2589 
0:0:23:978, 2547 
0:0:23:994, 2510 
0:0:24:10, 2456 
0:0:24:26, 2400 
0:0:24:42, 2326 
0:0:24:58, 2263 
0:0:24:74, 2223 
0:0:24:90, 2193 
0:0:24:105, 2191 
0:0:24:121, 2196 
0:0:24:137, 2198 
0:0:24:153, 2192 
0:0:24:169, 2170 
0:0:24:184, 2150 
0:0:24:199, 2120 
0:0:24:215, 2063 
0:0:24:231, 2020 
0:0:24:247, 1968 
0:0:24:263, 1923 
0:0:24:279, 1910 
0:0:24:295, 1892 
0:0:24:310, 1872 
0:0:24:326, 1850 
0:0:24:342, 1818 
0:0:24:358, 1812 
0:0:24:374, 1792 
0:0:24:390, 1773 
0:0:24:406, 1761 
0:0:24:421, 1757 
0:0:24:436, 1764 
0:0:24:451, 1783 
0:0:24:466, 1829 
0:0:24:481, 1894 
0:0:24:497, 2012 
0:0:24:512, 2173 
0:0:24:528, 2357 
0:0:24:544, 2543 
0:0:24:560, 2668 
0:0:24:576, 2717 
0:0:24:592, 2717 
0:0:24:607, 2690 
0:0:24:623, 2642 
0:0:24:639, 2585 
0:0:24:655, 2542 
0:0:24:670, 2479 
0:0:24:685, 2434 
0:0:24:700, 2390 
0:0:24:715, 2329 
0:0:24:730, 2276 
0:0:24:745, 2221 
0:0:24:761, 2178 
0:0:24:777, 2133 
0:0:24:793, 2105 
0:0:24:809, 2092 
0:0:24:824, 2072 
0:0:24:839, 2059 
0:0:24:855, 2032 
0:0:24:871, 1990 
0:0:24:887, 1980 
0:0:24:902, 1975 
0:0:24:917, 1957 
0:0:24:932, 1935 
0:0:24:947, 1896 
0:0:24:963, 1855 
0:0:24:980, 1827 
0:0:24:995, 1798 
0:0:25:11, 1751 
0:0:25:26, 1721 
0:0:25:41, 1689 
0:0:25:56, 1670 
0:0:25:72, 1654 
0:0:25:88, 1649 
0:0:25:103, 1641 
0:0:25:119, 1633 
0:0:25:134, 1627 
0:0:25:149, 1612 
0:0:25:165, 1582 
0:0:25:181, 1571 
0:0:25:197, 1557 
0:0:25:212, 1576 
0:0:25:228, 1660 
0:0:25:244, 1802 
0:0:25:260, 2045 
0:0:25:275, 2239 
0:0:25:290, 2395 
0:0:25:306, 2502 
0:0:25:322, 2558 
0:0:25:338, 2557 
0:0:25:354, 2542 
0:0:25:369, 2509 
0:0:25:384, 2484 
0:0:25:400, 2453 
0:0:25:416, 2416 
0:0:25:432, 2366 
0:0:25:448, 2289 
0:0:25:463, 2228 
0:0:25:479, 2166 
0:0:25:495, 2104 
0:0:25:510, 2057 
0:0:25:525, 2039 
0:0:25:541, 2036 
0:0:25:557, 2046 
0:0:25:573, 2064 
0:0:25:589, 2061 
0:0:25:605, 2054 
0:0:25:620, 2032 
0:0:25:635, 2012 
0:0:25:651, 1969 
0:0:25:667, 1940 
0:0:25:683, 1921 
0:0:25:699, 1884 
0:0:25:715, 1856 
0:0:25:731, 1802 
0:0:25:747, 1764 
0:0:25:762, 1735 
0:0:25:777, 1705 
0:0:25:793, 1668 
0:0:25:809, 1656 
0:0:25:824, 1643 
0:0:25:839, 1642 
0:0:25:854, 1641 
0:0:25:869, 1625 
0:0:25:884, 1623 
0:0:25:899, 1610 
0:0:25:914, 1596 
0:0:25:930, 1584 
0:0:25:946, 1567 
0:0:25:962, 1547 
0:0:25:978, 1533 
0:0:25:994, 1544 
0:0:26:10, 1594 
0:0:26:26, 1674 
0:0:26:42, 1806 
0:0:26:58, 1981 
0:0:26:73, 2154 
0:0:26:88, 2316 
0:0:26:103, 2452 
0:0:26:119, 2503 
0:0:26:135, 2507 
0:0:26:150, 2474 
0:0:26:165, 2420 
0:0:26:181, 2379 
0:0:26:197, 2339 
0:0:26:213, 2301 
0:0:26:229, 2247 
0:0:26:245, 2199 
0:0:26:261, 2126 
0:0:26:277, 2066 
0:0:26:293, 2009 
0:0:26:308, 1990 
0:0:26:323, 1971 
0:0:26:339, 1969 
0:0:26:355, 1968 
0:0:26:371, 1959 
0:0:26:386, 1948 
0:0:26:401, 1939 
0:0:26:417, 1926 
0:0:26:433, 1910 
0:0:26:449, 1882 
0:0:26:465, 1856 
0:0:26:481, 1818 
0:0:26:497, 1789 
0:0:26:513, 1765 
0:0:26:529, 1733 
0:0:26:544, 1694 
0:0:26:559, 1669 
0:0:26:575, 1660 
0:0:26:591, 1666 
0:0:26:606, 1660 
0:0:26:622, 1654 
0:0:26:638, 1645 
0:0:26:653, 1619 
0:0:26:668, 1600 
0:0:26:684, 1575 
0:0:26:700, 1565 
0:0:26:716, 1555 
0:0:26:732, 1532 
0:0:26:748, 1518 
0:0:26:763, 1510 
0:0:26:778, 1505 
0:0:26:793, 1490 
0:0:26:808, 1476 
0:0:26:824, 1467 
0:0:26:840, 1466 
0:0:26:855, 1481 
0:0:26:870, 1546 
0:0:26:885, 1656 
0:0:26:901, 1796 
0:0:26:916, 1918 
0:0:26:932, 2065 
0:0:26:948, 2182 
0:0:26:964, 2252 
0:0:26:980, 2276 
0:0:26:996, 2274 
0:0:27:11, 2258 
0:0:27:26, 2234 
0:0:27:42, 2193 
0:0:27:58, 2144 
0:0:27:74, 2096 
0:0:27:90, 2056 
0:0:27:105, 2018 
0:0:27:121, 1969 
0:0:27:137, 1930 
0:0:27:153, 1903 
0:0:27:169, 1893 
0:0:27:185, 1889 
0:0:27:201, 1891 
0:0:27:216, 1885 
0:0:27:232, 1879 
0:0:27:247, 1872 
0:0:27:262, 1850 
0:0:27:277, 1830 
0:0:27:293, 1807 
0:0:27:309, 1780 
0:0:27:325, 1753 
0:0:27:341, 1722 
0:0:27:357, 1702 
0:0:27:372, 1687 
0:0:27:388, 1664 
0:0:27:403, 1643 
0:0:27:419, 1610 
0:0:27:434, 1578 
0:0:27:449, 1549 
0:0:27:465, 1525 
0:0:27:480, 1508 
0:0:27:495, 1492 
0:0:27:512, 1485 
0:0:27:528, 1481 
0:0:27:544, 1475 
0:0:27:560, 1478 
0:0:27:576, 1482 
0:0:27:591, 1477 
0:0:27:606, 1465 
0:0:27:622, 1471 
0:0:27:637, 1496 
0:0:27:652, 1553 
0:0:27:668, 1688 
0:0:27:684, 1835 
0:0:27:700, 1980 
0:0:27:716, 2112 
0:0:27:731, 2248 
0:0:27:747, 2306 
0:0:27:763, 2328 
0:0:27:778, 2301 
0:0:27:793, 2262 
0:0:27:808, 2216 
0:0:27:824, 2176 
0:0:27:840, 2117 
0:0:27:856, 2063 
0:0:27:871, 2009 
0:0:27:886, 1966 
0:0:27:902, 1944 
0:0:27:918, 1931 
0:0:27:934, 1924 
0:0:27:949, 1926 
0:0:27:964, 1930 
0:0:27:980, 1946 
0:0:27:996, 1951 
0:0:28:11, 1942 
0:0:28:27, 1937 
0:0:28:43, 1918 
0:0:28:59, 1884 
0:0:28:74, 1864 
0:0:28:89, 1840 
0:0:28:105, 1798 
0:0:28:121, 1761 
0:0:28:136, 1743 
0:0:28:151, 1729 
0:0:28:167, 1715 
0:0:28:182, 1705 
0:0:28:197, 1688 
0:0:28:212, 1673 
0:0:28:228, 1660 
0:0:28:244, 1652 
0:0:28:260, 1639 
0:0:28:276, 1632 
0:0:28:292, 1625 
0:0:28:308, 1626 
0:0:28:324, 1619 
0:0:28:340, 1595 
0:0:28:355, 1557 
0:0:28:371, 1532 
0:0:28:386, 1524 
0:0:28:401, 1557 
0:0:28:416, 1626 
0:0:28:431, 1748 
0:0:28:447, 1953 
0:0:28:464, 2088 
0:0:28:480, 2254 
0:0:28:495, 2395 
0:0:28:510, 2477 
0:0:28:526, 2507 
0:0:28:542, 2513 
0:0:28:558, 2489 
0:0:28:574, 2450 
0:0:28:590, 2402 
0:0:28:606, 2358 
0:0:28:622, 2281 
0:0:28:638, 2219 
0:0:28:653, 2158 
0:0:28:668, 2120 
0:0:28:683, 2071 
0:0:28:699, 2022 
0:0:28:715, 1978 
0:0:28:731, 1948 
0:0:28:747, 1932 
0:0:28:763, 1922 
0:0:28:779, 1917 
0:0:28:794, 1919 
0:0:28:810, 1911 
0:0:28:826, 1914 
0:0:28:842, 1911 
0:0:28:858, 1906 
0:0:28:874, 1888 
0:0:28:889, 1865 
0:0:28:904, 1820 
0:0:28:920, 1809 
0:0:28:936, 1750 
0:0:28:952, 1690 
0:0:28:968, 1643 
0:0:28:984, 1606 
0:0:29:0, 1580 
0:0:29:15, 1565 
0:0:29:31, 1557 
0:0:29:47, 1566 
0:0:29:63, 1568 
0:0:29:78, 1567 
0:0:29:94, 1554 
0:0:29:110, 1517 
0:0:29:125, 1482 
0:0:29:140, 1451 
0:0:29:156, 1429 
0:0:29:172, 1438 
0:0:29:187, 1504 
0:0:29:202, 1635 
0:0:29:218, 1822 
0:0:29:233, 1971 
0:0:29:249, 2162 
0:0:29:265, 2342 
0:0:29:281, 2469 
0:0:29:297, 2535 
0:0:29:312, 2595 
0:0:29:328, 2598 
0:0:29:344, 2577 
0:0:29:359, 2563 
0:0:29:374, 2535 
0:0:29:390, 2493 
0:0:29:406, 2439 
0:0:29:422, 2375 
0:0:29:438, 2314 
0:0:29:454, 2298 
0:0:29:469, 2284 
0:0:29:484, 2292 
0:0:29:500, 2307 
0:0:29:515, 2330 
0:0:29:531, 2345 
0:0:29:547, 2355 
0:0:29:563, 2349 
0:0:29:579, 2326 
0:0:29:594, 2285 
0:0:29:610, 2225 
0:0:29:626, 2179 
0:0:29:641, 2109 
0:0:29:656, 2033 
0:0:29:672, 1982 
0:0:29:688, 1944 
0:0:29:704, 1886 
0:0:29:720, 1858 
0:0:29:736, 1832 
0:0:29:752, 1813 
0:0:29:767, 1813 
0:0:29:782, 1822 
0:0:29:798, 1849 
0:0:29:814, 1860 
0:0:29:829, 1861 
0:0:29:844, 1859 
0:0:29:860, 1857 
0:0:29:875, 1848 
0:0:29:891, 1850 
0:0:29:906, 1888 
0:0:29:922, 1991 
0:0:29:938, 2121 
0:0:29:954, 2226 
0:0:29:970, 2397 
0:0:29:986, 2530 
0:0:30:2, 2619 
0:0:30:17, 2637 
0:0:30:32, 2624 
0:0:30:48, 2604 
0:0:30:63, 2571 
0:0:30:78, 2525 
0:0:30:93, 2492 
0:0:30:109, 2444 
0:0:30:124, 2392 
0:0:30:140, 2354 
0:0:30:156, 2289 
0:0:30:172, 2231 
0:0:30:188, 2188 
0:0:30:203, 2155 
0:0:30:218, 2134 
0:0:30:234, 2138 
0:0:30:250, 2142 
0:0:30:266, 2145 
0:0:30:281, 2136 
0:0:30:296, 2119 
0:0:30:312, 2093 
0:0:30:328, 2058 
0:0:30:344, 2017 
0:0:30:360, 1990 
0:0:30:376, 1968 
0:0:30:392, 1935 
0:0:30:408, 1908 
0:0:30:424, 1874 
0:0:30:440, 1821 
0:0:30:456, 1773 
0:0:30:472, 1719 
0:0:30:487, 1677 
0:0:30:503, 1637 
0:0:30:518, 1629 
0:0:30:533, 1627 
0:0:30:548, 1613 
0:0:30:564, 1598 
0:0:30:580, 1584 
0:0:30:596, 1573 
0:0:30:612, 1578 
0:0:30:628, 1599 
0:0:30:644, 1676 
0:0:30:660, 1848 
0:0:30:676, 2036 
0:0:30:692, 2232 
0:0:30:707, 2373 
0:0:30:723, 2505 
0:0:30:739, 2673 
0:0:30:755, 2763 
0:0:30:770, 2791 
0:0:30:785, 2789 
0:0:30:800, 2766 
0:0:30:815, 2723 
0:0:30:831, 2678 
0:0:30:847, 2607 
0:0:30:863, 2556 
0:0:30:878, 2505 
0:0:30:894, 2408 
0:0:30:910, 2366 
0:0:30:926, 2283 
0:0:30:942, 2221 
0:0:30:958, 2183 
0:0:30:974, 2139 
0:0:30:989, 2125 
0:0:31:4, 2111 
0:0:31:19, 2111 
0:0:31:35, 2095 
0:0:31:51, 2073 
0:0:31:67, 2046 
0:0:31:83, 2022 
0:0:31:99, 1983 
0:0:31:115, 1954 
0:0:31:131, 1909 
0:0:31:147, 1863 
0:0:31:163, 1836 
0:0:31:179, 1808 
0:0:31:195, 1789 
0:0:31:210, 1771 
0:0:31:225, 1751 
0:0:31:240, 1729 
0:0:31:255, 1702 
0:0:31:270, 1686 
0:0:31:286, 1670 
0:0:31:302, 1661 
0:0:31:317, 1650 
0:0:31:333, 1630 
0:0:31:349, 1592 
0:0:31:365, 1572 
0:0:31:380, 1565 
0:0:31:396, 1592 
0:0:31:412, 1645 
0:0:31:428, 1801 
0:0:31:444, 1973 
0:0:31:460, 2162 
0:0:31:475, 2393 
0:0:31:490, 2517 
0:0:31:505, 2649 
0:0:31:520, 2681 
0:0:31:535, 2713 
0:0:31:550, 2717 
0:0:31:566, 2700 
0:0:31:582, 2670 
0:0:31:598, 2635 
0:0:31:614, 2582 
0:0:31:630, 2507 
0:0:31:646, 2397 
0:0:31:662, 2330 
0:0:31:678, 2251 
0:0:31:694, 2187 
0:0:31:709, 2137 
0:0:31:724, 2109 
0:0:31:740, 2076 
0:0:31:756, 2060 
0:0:31:772, 2058 
0:0:31:788, 2038 
0:0:31:804, 2026 
0:0:31:819, 2006 
0:0:31:835, 1959 
0:0:31:850, 1925 
0:0:31:866, 1888 
0:0:31:882, 1841 
0:0:31:898, 1790 
0:0:31:914, 1744 
0:0:31:930, 1700 
0:0:31:945, 1654 
0:0:31:960, 1623 
0:0:31:976, 1575 
0:0:31:992, 1518 
0:0:32:7, 1462 
0:0:32:23, 1394 
0:0:32:38, 1334 
0:0:32:54, 1296 
0:0:32:69, 1274 
0:0:32:85, 1251 
0:0:32:100, 1216 
0:0:32:116, 1171 
0:0:32:132, 1112 
0:0:32:148, 1080 
0:0:32:163, 1101 
0:0:32:178, 1195 
0:0:32:193, 1437 
0:0:32:209, 1682 
0:0:32:225, 2013 
0:0:32:241, 2137 
0:0:32:257, 2394 
0:0:32:273, 2553 
0:0:32:289, 2651 
0:0:32:305, 2672 
0:0:32:320, 2664 
0:0:32:336, 2636 
0:0:32:352, 2571 
0:0:32:368, 2496 
0:0:32:384, 2458 
0:0:32:399, 2369 
0:0:32:415, 2304 
0:0:32:430, 2230 
0:0:32:446, 2155 
0:0:32:462, 2116 
0:0:32:478, 2086 
0:0:32:494, 2071 
0:0:32:509, 2066 
0:0:32:525, 2065 
0:0:32:541, 2069 
0:0:32:557, 2054 
0:0:32:572, 2010 
0:0:32:588, 1950 
0:0:32:605, 1874 
0:0:32:620, 1811 
0:0:32:635, 1769 
0:0:32:650, 1735 
0:0:32:665, 1706 
0:0:32:680, 1678 
0:0:32:696, 1636 
0:0:32:712, 1606 
0:0:32:728, 1569 
0:0:32:744, 1513 
0:0:32:759, 1464 
0:0:32:774, 1397 
0:0:32:789, 1342 
0:0:32:805, 1291 
0:0:32:821, 1250 
0:0:32:837, 1211 
0:0:32:853, 1186 
0:0:32:869, 1194 
0:0:32:884, 1260 
0:0:32:899, 1399 
0:0:32:914, 1597 
0:0:32:930, 1849 
0:0:32:945, 2110 
0:0:32:960, 2332 
0:0:32:975, 2332 
0:0:32:991, 2516 
0:0:33:7, 2593 
0:0:33:23, 2617 
0:0:33:38, 2589 
0:0:33:53, 2524 
0:0:33:69, 2446 
0:0:33:85, 2358 
0:0:33:101, 2262 
0:0:33:116, 2193 
0:0:33:131, 2117 
0:0:33:146, 2048 
0:0:33:162, 1993 
0:0:33:178, 1929 
0:0:33:194, 1894 
0:0:33:209, 1858 
0:0:33:225, 1858 
0:0:33:241, 1882 
0:0:33:256, 1905 
0:0:33:272, 1928 
0:0:33:288, 1926 
0:0:33:304, 1910 
0:0:33:319, 1883 
0:0:33:335, 1843 
0:0:33:350, 1802 
0:0:33:365, 1757 
0:0:33:381, 1710 
0:0:33:397, 1665 
0:0:33:413, 1622 
0:0:33:429, 1600 
0:0:33:445, 1586 
0:0:33:461, 1573 
0:0:33:477, 1568 
0:0:33:493, 1559 
0:0:33:508, 1549 
0:0:33:524, 1529 
0:0:33:540, 1503 
0:0:33:556, 1460 
0:0:33:572, 1424 
0:0:33:587, 1395 
0:0:33:602, 1384 
0:0:33:618, 1414 
0:0:33:634, 1507 
0:0:33:649, 1685 
0:0:33:665, 1932 
0:0:33:681, 2289 
0:0:33:696, 2494 
0:0:33:711, 2793 
0:0:33:727, 2916 
0:0:33:743, 2970 
0:0:33:759, 2957 
0:0:33:775, 2906 
0:0:33:791, 2834 
0:0:33:807, 2789 
0:0:33:822, 2708 
0:0:33:837, 2620 
0:0:33:852, 2525 
0:0:33:868, 2386 
0:0:33:883, 2296 
0:0:33:898, 2207 
0:0:33:913, 2136 
0:0:33:929, 2081 
0:0:33:945, 2063 
0:0:33:960, 2044 
0:0:33:975, 2039 
0:0:33:991, 2032 
0:0:34:7, 2034 
0:0:34:23, 2026 
0:0:34:38, 2008 
0:0:34:53, 1971 
0:0:34:68, 1952 
0:0:34:84, 1910 
0:0:34:100, 1863 
0:0:34:116, 1814 
0:0:34:132, 1771 
0:0:34:148, 1739 
0:0:34:163, 1693 
0:0:34:179, 1655 
0:0:34:195, 1615 
0:0:34:210, 1571 
0:0:34:226, 1559 
0:0:34:242, 1526 
0:0:34:257, 1488 
0:0:34:272, 1456 
0:0:34:287, 1413 
0:0:34:302, 1378 
0:0:34:318, 1359 
0:0:34:334, 1385 
0:0:34:349, 1489 
0:0:34:364, 1730 
0:0:34:379, 1730 
0:0:34:394, 1927 
0:0:34:409, 2213 
0:0:34:425, 2544 
0:0:34:441, 2720 
0:0:34:457, 2863 
0:0:34:473, 2915 
0:0:34:489, 2891 
0:0:34:505, 2837 
0:0:34:520, 2754 
0:0:34:535, 2662 
0:0:34:550, 2578 
0:0:34:566, 2486 
0:0:34:582, 2390 
0:0:34:598, 2289 
0:0:34:614, 2186 
0:0:34:630, 2103 
0:0:34:646, 2073 
0:0:34:662, 2032 
0:0:34:678, 2005 
0:0:34:693, 1990 
0:0:34:708, 1980 
0:0:34:723, 1989 
0:0:34:738, 1986 
0:0:34:753, 1964 
0:0:34:768, 1932 
0:0:34:783, 1889 
0:0:34:799, 1816 
0:0:34:814, 1769 
0:0:34:830, 1754 
0:0:34:846, 1754 
0:0:34:862, 1705 
0:0:34:878, 1660 
0:0:34:894, 1603 
0:0:34:910, 1563 
0:0:34:926, 1521 
0:0:34:942, 1475 
0:0:34:958, 1445 
0:0:34:974, 1418 
0:0:34:989, 1398 
0:0:35:4, 1388 
0:0:35:19, 1381 
0:0:35:35, 1361 
0:0:35:51, 1335 
0:0:35:67, 1310 
0:0:35:83, 1286 
0:0:35:98, 1292 
0:0:35:114, 1322 
0:0:35:130, 1379 
0:0:35:146, 1570 
0:0:35:162, 1799 
0:0:35:178, 2105 
0:0:35:194, 2339 
0:0:35:209, 2565 
0:0:35:224, 2642 
0:0:35:239, 2650 
0:0:35:254, 2602 
0:0:35:270, 2551 
0:0:35:286, 2432 
0:0:35:302, 2330 
0:0:35:317, 2229 
0:0:35:333, 2104 
0:0:35:349, 2014 
0:0:35:365, 1903 
0:0:35:381, 1830 
0:0:35:397, 1779 
0:0:35:412, 1745 
0:0:35:428, 1735 
0:0:35:444, 1736 
0:0:35:459, 1743 
0:0:35:474, 1742 
0:0:35:489, 1718 
0:0:35:504, 1687 
0:0:35:520, 1656 
0:0:35:536, 1607 
0:0:35:551, 1584 
0:0:35:567, 1556 
0:0:35:583, 1525 
0:0:35:599, 1479 
0:0:35:614, 1455 
0:0:35:630, 1435 
0:0:35:646, 1404 
0:0:35:662, 1380 
0:0:35:678, 1361 
0:0:35:693, 1359 
0:0:35:709, 1351 
0:0:35:725, 1335 
0:0:35:741, 1320 
0:0:35:757, 1299 
0:0:35:772, 1308 
0:0:35:787, 1373 
0:0:35:803, 1575 
0:0:35:819, 1804 
0:0:35:835, 2065 
0:0:35:851, 2302 
0:0:35:867, 2523 
0:0:35:883, 2629 
0:0:35:899, 2675 
0:0:35:914, 2654 
0:0:35:929, 2592 
0:0:35:944, 2518 
0:0:35:960, 2413 
0:0:35:976, 2325 
0:0:35:992, 2235 
0:0:36:8, 2106 
0:0:36:23, 2017 
0:0:36:39, 1866 
0:0:36:55, 1761 
0:0:36:71, 1686 
0:0:36:86, 1667 
0:0:36:102, 1642 
0:0:36:118, 1644 
0:0:36:134, 1661 
0:0:36:150, 1679 
0:0:36:165, 1684 
0:0:36:180, 1680 
0:0:36:195, 1669 
0:0:36:210, 1641 
0:0:36:226, 1622 
0:0:36:241, 1591 
0:0:36:257, 1564 
0:0:36:273, 1547 
0:0:36:288, 1526 
0:0:36:303, 1500 
0:0:36:319, 1474 
0:0:36:335, 1438 
0:0:36:351, 1410 
0:0:36:366, 1394 
0:0:36:381, 1374 
0:0:36:397, 1362 
0:0:36:412, 1357 
0:0:36:427, 1334 
0:0:36:443, 1317 
0:0:36:458, 1293 
0:0:36:473, 1281 
0:0:36:489, 1329 
0:0:36:504, 1410 
0:0:36:520, 1608 
0:0:36:536, 1955 
0:0:36:552, 2265 
0:0:36:568, 2559 
0:0:36:584, 2871 
0:0:36:599, 3010 
0:0:36:614, 3072 
0:0:36:629, 3075 
0:0:36:644, 3038 
0:0:36:659, 2982 
0:0:36:675, 2905 
0:0:36:691, 2839 
0:0:36:707, 2763 
0:0:36:722, 2685 
0:0:36:738, 2607 
0:0:36:754, 2544 
0:0:36:770, 2443 
0:0:36:786, 2370 
0:0:36:801, 2306 
0:0:36:816, 2256 
0:0:36:832, 2209 
0:0:36:848, 2185 
0:0:36:863, 2140 
0:0:36:878, 2090 
0:0:36:893, 2035 
0:0:36:908, 1983 
0:0:36:924, 1951 
0:0:36:940, 1897 
0:0:36:956, 1822 
0:0:36:972, 1769 
0:0:36:988, 1717 
0:0:37:4, 1675 
0:0:37:20, 1641 
0:0:37:36, 1593 
0:0:37:51, 1569 
0:0:37:67, 1554 
0:0:37:82, 1549 
0:0:37:97, 1543 
0:0:37:112, 1545 
0:0:37:127, 1545 
0:0:37:143, 1545 
0:0:37:159, 1561 
0:0:37:175, 1574 
0:0:37:190, 1562 
0:0:37:206, 1543 
0:0:37:222, 1522 
0:0:37:237, 1551 
0:0:37:252, 1621 
0:0:37:268, 1853 
0:0:37:284, 2106 
0:0:37:300, 2375 
0:0:37:315, 2665 
0:0:37:330, 2730 
0:0:37:345, 2812 
0:0:37:361, 2890 
0:0:37:377, 2931 
0:0:37:393, 2918 
0:0:37:409, 2854 
0:0:37:425, 2789 
0:0:37:440, 2720 
0:0:37:456, 2627 
0:0:37:472, 2544 
0:0:37:488, 2431 
0:0:37:504, 2341 
0:0:37:519, 2267 
0:0:37:535, 2195 
0:0:37:551, 2120 
0:0:37:566, 2067 
0:0:37:581, 2039 
0:0:37:596, 2021 
0:0:37:612, 2020 
0:0:37:628, 2007 
0:0:37:644, 1986 
0:0:37:660, 1977 
0:0:37:676, 1957 
0:0:37:692, 1939 
0:0:37:708, 1901 
0:0:37:723, 1862 
0:0:37:739, 1815 
0:0:37:755, 1769 
0:0:37:771, 1743 
0:0:37:787, 1713 
0:0:37:802, 1669 
0:0:37:817, 1624 
0:0:37:832, 1592 
0:0:37:847, 1568 
0:0:37:863, 1536 
0:0:37:879, 1511 
0:0:37:895, 1482 
0:0:37:911, 1462 
0:0:37:926, 1447 
0:0:37:942, 1438 
0:0:37:958, 1418 
0:0:37:974, 1402 
0:0:37:990, 1386 
0:0:38:6, 1361 
0:0:38:21, 1356 
0:0:38:36, 1390 
0:0:38:51, 1485 
0:0:38:66, 1681 
0:0:38:82, 2015 
0:0:38:97, 2316 
0:0:38:113, 2588 
0:0:38:129, 2845 
0:0:38:145, 2922 
0:0:38:161, 2961 
0:0:38:177, 2918 
0:0:38:193, 2842 
0:0:38:209, 2794 
0:0:38:225, 2676 
0:0:38:241, 2589 
0:0:38:256, 2498 
0:0:38:271, 2374 
0:0:38:286, 2277 
0:0:38:302, 2182 
0:0:38:318, 2080 
0:0:38:334, 2007 
0:0:38:350, 1964 
0:0:38:366, 1918 
0:0:38:382, 1882 
0:0:38:398, 1856 
0:0:38:413, 1840 
0:0:38:429, 1815 
0:0:38:445, 1794 
0:0:38:460, 1767 
0:0:38:475, 1738 
0:0:38:491, 1704 
0:0:38:506, 1653 
0:0:38:522, 1620 
0:0:38:537, 1584 
0:0:38:552, 1546 
0:0:38:567, 1507 
0:0:38:583, 1474 
0:0:38:599, 1441 
0:0:38:614, 1413 
0:0:38:630, 1377 
0:0:38:645, 1354 
0:0:38:660, 1333 
0:0:38:675, 1301 
0:0:38:691, 1298 
0:0:38:706, 1294 
0:0:38:721, 1275 
0:0:38:736, 1257 
0:0:38:751, 1237 
0:0:38:766, 1224 
0:0:38:781, 1212 
0:0:38:796, 1205 
0:0:38:812, 1218 
0:0:38:828, 1281 
0:0:38:844, 1460 
0:0:38:860, 1687 
0:0:38:876, 1976 
0:0:38:891, 2273 
0:0:38:906, 2552 
0:0:38:922, 2803 
0:0:38:938, 2940 
0:0:38:953, 2980 
0:0:38:968, 3002 
0:0:38:983, 2989 
0:0:38:998, 2949 
0:0:39:13, 2897 
0:0:39:29, 2833 
0:0:39:45, 2724 
0:0:39:61, 2625 
0:0:39:77, 2489 
0:0:39:93, 2382 
0:0:39:109, 2279 
0:0:39:125, 2183 
0:0:39:141, 2128 
0:0:39:157, 2084 
0:0:39:173, 2063 
0:0:39:189, 2055 
0:0:39:205, 2050 
0:0:39:220, 2048 
0:0:39:235, 2036 
0:0:39:251, 1996 
0:0:39:267, 1943 
0:0:39:283, 1870 
0:0:39:299, 1831 
0:0:39:315, 1791 
0:0:39:331, 1746 
0:0:39:347, 1703 
0:0:39:363, 1641 
0:0:39:379, 1598 
0:0:39:395, 1558 
0:0:39:411, 1522 
0:0:39:427, 1492 
0:0:39:443, 1458 
0:0:39:458, 1433 
0:0:39:473, 1402 
0:0:39:488, 1374 
0:0:39:503, 1357 
0:0:39:518, 1340 
0:0:39:534, 1325 
0:0:39:549, 1314 
0:0:39:565, 1334 
0:0:39:581, 1399 
0:0:39:597, 1569 
0:0:39:613, 1836 
0:0:39:629, 2179 
0:0:39:645, 2532 
0:0:39:661, 2858 
0:0:39:677, 3141 
0:0:39:692, 3141 
0:0:39:707, 3290 
0:0:39:722, 3362 
0:0:39:738, 3356 
0:0:39:753, 3291 
0:0:39:769, 3157 
0:0:39:785, 3007 
0:0:39:800, 2911 
0:0:39:816, 2816 
0:0:39:832, 2698 
0:0:39:848, 2555 
0:0:39:864, 2445 
0:0:39:880, 2342 
0:0:39:896, 2226 
0:0:39:911, 2166 
0:0:39:926, 2148 
0:0:39:941, 2134 
0:0:39:957, 2115 
0:0:39:973, 2074 
0:0:39:989, 2008 
0:0:40:5, 1963 
0:0:40:21, 1907 
0:0:40:36, 1838 
0:0:40:52, 1756 
0:0:40:68, 1667 
0:0:40:84, 1611 
0:0:40:100, 1567 
0:0:40:115, 1516 
0:0:40:131, 1486 
0:0:40:147, 1460 
0:0:40:162, 1436 
0:0:40:177, 1421 
0:0:40:192, 1400 
0:0:40:208, 1387 
0:0:40:224, 1373 
0:0:40:240, 1355 
0:0:40:256, 1345 
0:0:40:271, 1329 
0:0:40:286, 1324 
0:0:40:302, 1312 
0:0:40:317, 1292 
0:0:40:333, 1314 
0:0:40:349, 1408 
0:0:40:365, 1600 
0:0:40:381, 1884 
0:0:40:396, 2298 
0:0:40:412, 2550 
0:0:40:428, 2844 
0:0:40:444, 3101 
0:0:40:460, 3233 
0:0:40:476, 3277 
0:0:40:492, 3269 
0:0:40:508, 3225 
0:0:40:524, 3143 
0:0:40:539, 3054 
0:0:40:555, 2986 
0:0:40:571, 2911 
0:0:40:587, 2775 
0:0:40:603, 2659 
0:0:40:618, 2570 
0:0:40:633, 2459 
0:0:40:649, 2363 
0:0:40:665, 2277 
0:0:40:681, 2203 
0:0:40:696, 2168 
0:0:40:712, 2158 
0:0:40:728, 2142 
0:0:40:744, 2116 
0:0:40:760, 2078 
0:0:40:776, 2025 
0:0:40:792, 1994 
0:0:40:807, 1949 
0:0:40:822, 1895 
0:0:40:838, 1842 
0:0:40:854, 1787 
0:0:40:869, 1739 
0:0:40:884, 1701 
0:0:40:900, 1656 
0:0:40:915, 1624 
0:0:40:931, 1583 
0:0:40:947, 1529 
0:0:40:963, 1501 
0:0:40:979, 1480 
0:0:40:994, 1466 
0:0:41:10, 1443 
0:0:41:26, 1425 
0:0:41:42, 1419 
0:0:41:57, 1407 
0:0:41:73, 1406 
0:0:41:89, 1389 
0:0:41:104, 1382 
0:0:41:119, 1410 
0:0:41:136, 1500 
0:0:41:152, 1736 
0:0:41:168, 2013 
0:0:41:184, 2424 
0:0:41:200, 2742 
0:0:41:215, 2949 
0:0:41:231, 3106 
0:0:41:247, 3232 
0:0:41:263, 3328 
0:0:41:279, 3343 
0:0:41:295, 3298 
0:0:41:311, 3232 
0:0:41:327, 3138 
0:0:41:342, 3035 
0:0:41:357, 2928 
0:0:41:373, 2807 
0:0:41:389, 2647 
0:0:41:405, 2548 
0:0:41:420, 2391 
0:0:41:436, 2295 
0:0:41:452, 2225 
0:0:41:468, 2180 
0:0:41:484, 2160 
0:0:41:500, 2144 
0:0:41:516, 2131 
0:0:41:532, 2118 
0:0:41:548, 2094 
0:0:41:564, 2044 
0:0:41:579, 2006 
0:0:41:594, 1950 
0:0:41:610, 1896 
0:0:41:626, 1846 
0:0:41:642, 1794 
0:0:41:658, 1750 
0:0:41:674, 1669 
0:0:41:689, 1603 
0:0:41:705, 1537 
0:0:41:720, 1497 
0:0:41:736, 1469 
0:0:41:751, 1431 
0:0:41:766, 1398 
0:0:41:782, 1364 
0:0:41:797, 1336 
0:0:41:813, 1323 
0:0:41:828, 1311 
0:0:41:843, 1293 
0:0:41:859, 1277 
0:0:41:875, 1266 
0:0:41:890, 1248 
0:0:41:906, 1241 
0:0:41:922, 1241 
0:0:41:938, 1253 
0:0:41:953, 1306 
0:0:41:969, 1433 
0:0:41:985, 1707 
0:0:42:1, 2016 
0:0:42:17, 2361 
0:0:42:32, 2623 
0:0:42:47, 2936 
0:0:42:62, 3241 
0:0:42:77, 3330 
0:0:42:92, 3366 
0:0:42:108, 3345 
0:0:42:124, 3284 
0:0:42:140, 3215 
0:0:42:156, 3092 
0:0:42:172, 2976 
0:0:42:188, 2847 
0:0:42:204, 2715 
0:0:42:219, 2541 
0:0:42:235, 2445 
0:0:42:251, 2331 
0:0:42:267, 2229 
0:0:42:282, 2189 
0:0:42:297, 2157 
0:0:42:313, 2152 
0:0:42:329, 2144 
0:0:42:345, 2140 
0:0:42:361, 2125 
0:0:42:376, 2094 
0:0:42:391, 2051 
0:0:42:407, 2006 
0:0:42:423, 1956 
0:0:42:439, 1900 
0:0:42:455, 1835 
0:0:42:471, 1781 
0:0:42:487, 1726 
0:0:42:503, 1677 
0:0:42:518, 1626 
0:0:42:533, 1575 
0:0:42:548, 1535 
0:0:42:563, 1507 
0:0:42:579, 1472 
0:0:42:595, 1438 
0:0:42:611, 1420 
0:0:42:626, 1391 
0:0:42:641, 1358 
0:0:42:657, 1340 
0:0:42:673, 1315 
0:0:42:688, 1300 
0:0:42:704, 1293 
0:0:42:720, 1284 
0:0:42:736, 1280 
0:0:42:751, 1291 
0:0:42:766, 1353 
0:0:42:782, 1554 
0:0:42:798, 1806 
0:0:42:813, 2209 
0:0:42:829, 2538 
0:0:42:844, 2834 
0:0:42:860, 3127 
0:0:42:876, 3224 
0:0:42:892, 3243 
0:0:42:908, 3218 
0:0:42:924, 3137 
0:0:42:940, 3063 
0:0:42:956, 2948 
0:0:42:972, 2810 
0:0:42:987, 2722 
0:0:43:2, 2586 
0:0:43:17, 2459 
0:0:43:33, 2397 
0:0:43:49, 2272 
0:0:43:65, 2153 
0:0:43:81, 2093 
0:0:43:97, 2060 
0:0:43:112, 2032 
0:0:43:128, 2020 
0:0:43:144, 2037 
0:0:43:160, 2048 
0:0:43:176, 2024 
0:0:43:192, 1978 
0:0:43:208, 1909 
0:0:43:224, 1859 
0:0:43:239, 1812 
0:0:43:254, 1762 
0:0:43:270, 1724 
0:0:43:286, 1668 
0:0:43:301, 1647 
0:0:43:317, 1602 
0:0:43:333, 1566 
0:0:43:349, 1520 
0:0:43:365, 1494 
0:0:43:381, 1466 
0:0:43:397, 1442 
0:0:43:412, 1405 
0:0:43:428, 1396 
0:0:43:444, 1391 
0:0:43:459, 1381 
0:0:43:474, 1371 
0:0:43:489, 1363 
0:0:43:504, 1363 
0:0:43:520, 1360 
0:0:43:536, 1341 
0:0:43:552, 1329 
0:0:43:567, 1316 
0:0:43:583, 1318 
0:0:43:598, 1381 
0:0:43:613, 1514 
0:0:43:629, 1811 
0:0:43:645, 2132 
0:0:43:660, 2482 
0:0:43:675, 2830 
0:0:43:690, 3236 
0:0:43:705, 3383 
0:0:43:721, 3480 
0:0:43:736, 3531 
0:0:43:751, 3509 
0:0:43:767, 3432 
0:0:43:783, 3310 
0:0:43:799, 3195 
0:0:43:815, 3041 
0:0:43:830, 2898 
0:0:43:845, 2783 
0:0:43:861, 2647 
0:0:43:877, 2554 
0:0:43:893, 2465 
0:0:43:909, 2360 
0:0:43:925, 2300 
0:0:43:940, 2234 
0:0:43:956, 2210 
0:0:43:972, 2193 
0:0:43:987, 2184 
0:0:44:3, 2147 
0:0:44:18, 2109 
0:0:44:34, 2067 
0:0:44:49, 1992 
0:0:44:64, 1942 
0:0:44:80, 1884 
0:0:44:96, 1811 
0:0:44:112, 1754 
0:0:44:128, 1691 
0:0:44:144, 1650 
0:0:44:159, 1628 
0:0:44:174, 1582 
0:0:44:190, 1558 
0:0:44:206, 1520 
0:0:44:222, 1490 
0:0:44:237, 1447 
0:0:44:253, 1406 
0:0:44:268, 1370 
0:0:44:283, 1361 
0:0:44:299, 1336 
0:0:44:315, 1321 
0:0:44:331, 1300 
0:0:44:347, 1285 
0:0:44:363, 1279 
0:0:44:379, 1285 
0:0:44:394, 1281 
0:0:44:409, 1267 
0:0:44:425, 1250 
0:0:44:441, 1223 
0:0:44:457, 1233 
0:0:44:473, 1280 
0:0:44:489, 1435 
0:0:44:505, 1769 
0:0:44:520, 1933 
0:0:44:535, 2295 
0:0:44:550, 2648 
0:0:44:566, 2978 
0:0:44:582, 3208 
0:0:44:598, 3325 
0:0:44:614, 3367 
0:0:44:629, 3347 
0:0:44:644, 3253 
0:0:44:660, 3162 
0:0:44:676, 3022 
0:0:44:692, 2880 
0:0:44:708, 2761 
0:0:44:723, 2633 
0:0:44:739, 2517 
0:0:44:755, 2375 
0:0:44:771, 2289 
0:0:44:787, 2200 
0:0:44:803, 2159 
0:0:44:819, 2126 
0:0:44:834, 2105 
0:0:44:849, 2079 
0:0:44:864, 2054 
0:0:44:879, 2021 
0:0:44:894, 2000 
0:0:44:910, 1979 
0:0:44:925, 1939 
0:0:44:941, 1889 
0:0:44:956, 1836 
0:0:44:971, 1779 
0:0:44:987, 1708 
0:0:45:3, 1651 
0:0:45:19, 1597 
0:0:45:35, 1564 
0:0:45:50, 1538 
0:0:45:65, 1510 
0:0:45:81, 1489 
0:0:45:96, 1455 
0:0:45:111, 1421 
0:0:45:126, 1387 
0:0:45:142, 1362 
0:0:45:158, 1351 
0:0:45:174, 1339 
0:0:45:190, 1330 
0:0:45:206, 1335 
0:0:45:221, 1333 
0:0:45:237, 1323 
0:0:45:253, 1308 
0:0:45:269, 1313 
0:0:45:285, 1350 
0:0:45:300, 1463 
0:0:45:316, 1742 
0:0:45:331, 2038 
0:0:45:346, 2294 
0:0:45:361, 2637 
0:0:45:377, 2936 
0:0:45:393, 3202 
0:0:45:409, 3336 
0:0:45:424, 3377 
0:0:45:440, 3339 
0:0:45:456, 3218 
0:0:45:472, 3110 
0:0:45:488, 3080 
0:0:45:504, 2941 
0:0:45:520, 2808 
0:0:45:536, 2683 
0:0:45:552, 2586 
0:0:45:567, 2493 
0:0:45:582, 2382 
0:0:45:597, 2297 
0:0:45:613, 2243 
0:0:45:629, 2224 
0:0:45:645, 2220 
0:0:45:661, 2233 
0:0:45:677, 2233 
0:0:45:692, 2228 
0:0:45:707, 2215 
0:0:45:723, 2175 
0:0:45:739, 2134 
0:0:45:754, 2096 
0:0:45:770, 2033 
0:0:45:785, 1967 
0:0:45:800, 1898 
0:0:45:816, 1810 
0:0:45:832, 1755 
0:0:45:848, 1694 
0:0:45:864, 1652 
0:0:45:880, 1600 
0:0:45:896, 1557 
0:0:45:912, 1513 
0:0:45:927, 1484 
0:0:45:943, 1481 
0:0:45:959, 1487 
0:0:45:975, 1497 
0:0:45:990, 1513 
0:0:46:5, 1519 
0:0:46:20, 1511 
0:0:46:35, 1494 
0:0:46:50, 1456 
0:0:46:65, 1422 
0:0:46:81, 1412 
0:0:46:97, 1449 
0:0:46:113, 1623 
0:0:46:128, 1800 
0:0:46:144, 2180 
0:0:46:160, 2530 
0:0:46:176, 2864 
0:0:46:192, 3203 
0:0:46:208, 3406 
0:0:46:223, 3524 
0:0:46:239, 3555 
0:0:46:255, 3555 
0:0:46:270, 3555 
0:0:46:285, 3555 
0:0:46:301, 3517 
0:0:46:317, 3473 
0:0:46:332, 3391 
0:0:46:348, 3294 
0:0:46:364, 3149 
0:0:46:379, 3047 
0:0:46:395, 2931 
0:0:46:410, 2779 
0:0:46:425, 2617 
0:0:46:441, 2522 
0:0:46:457, 2441 
0:0:46:473, 2355 
0:0:46:489, 2304 
0:0:46:504, 2234 
0:0:46:520, 2214 
0:0:46:535, 2190 
0:0:46:550, 2153 
0:0:46:565, 2118 
0:0:46:580, 2078 
0:0:46:596, 2038 
0:0:46:613, 1969 
0:0:46:629, 1901 
0:0:46:645, 1832 
0:0:46:660, 1747 
0:0:46:676, 1685 
0:0:46:692, 1620 
0:0:46:708, 1573 
0:0:46:723, 1513 
0:0:46:738, 1466 
0:0:46:753, 1420 
0:0:46:769, 1380 
0:0:46:785, 1353 
0:0:46:801, 1346 
0:0:46:817, 1331 
0:0:46:832, 1327 
0:0:46:848, 1330 
0:0:46:864, 1328 
0:0:46:879, 1332 
0:0:46:894, 1327 
0:0:46:910, 1321 
0:0:46:926, 1312 
0:0:46:942, 1314 
0:0:46:958, 1328 
0:0:46:973, 1369 
0:0:46:988, 1492 
0:0:47:3, 1589 
0:0:47:18, 1854 
0:0:47:34, 2196 
0:0:47:49, 2559 
0:0:47:64, 2896 
0:0:47:80, 3214 
0:0:47:96, 3415 
0:0:47:111, 3481 
0:0:47:127, 3436 
0:0:47:143, 3348 
0:0:47:158, 3267 
0:0:47:173, 3105 
0:0:47:189, 2982 
0:0:47:204, 2847 
0:0:47:219, 2709 
0:0:47:234, 2570 
0:0:47:249, 2439 
0:0:47:265, 2295 
0:0:47:281, 2217 
0:0:47:297, 2156 
0:0:47:313, 2133 
0:0:47:329, 2122 
0:0:47:345, 2114 
0:0:47:361, 2128 
0:0:47:377, 2124 
0:0:47:393, 2084 
0:0:47:409, 2036 
0:0:47:425, 1967 
0:0:47:440, 1892 
0:0:47:455, 1816 
0:0:47:471, 1748 
0:0:47:487, 1678 
0:0:47:503, 1600 
0:0:47:519, 1574 
0:0:47:534, 1537 
0:0:47:550, 1483 
0:0:47:566, 1431 
0:0:47:582, 1394 
0:0:47:598, 1375 
0:0:47:615, 1351 
0:0:47:631, 1339 
0:0:47:646, 1328 
0:0:47:661, 1314 
0:0:47:676, 1300 
0:0:47:691, 1285 
0:0:47:706, 1269 
0:0:47:721, 1273 
0:0:47:736, 1279 
0:0:47:752, 1293 
0:0:47:768, 1310 
0:0:47:784, 1307 
0:0:47:800, 1296 
0:0:47:816, 1290 
0:0:47:831, 1319 
0:0:47:847, 1410 
0:0:47:862, 1619 
0:0:47:878, 1999 
0:0:47:894, 2371 
0:0:47:909, 2731 
0:0:47:924, 3079 
0:0:47:940, 3309 
0:0:47:956, 3436 
0:0:47:972, 3485 
0:0:47:988, 3452 
0:0:48:4, 3373 
0:0:48:20, 3293 
0:0:48:35, 3137 
0:0:48:51, 3104 
0:0:48:67, 2977 
0:0:48:83, 2818 
0:0:48:99, 2692 
0:0:48:115, 2529 
0:0:48:131, 2414 
0:0:48:146, 2317 
0:0:48:161, 2274 
0:0:48:177, 2216 
0:0:48:193, 2170 
0:0:48:209, 2156 
0:0:48:224, 2144 
0:0:48:240, 2137 
0:0:48:256, 2116 
0:0:48:272, 2071 
0:0:48:287, 2014 
0:0:48:303, 1945 
0:0:48:319, 1892 
0:0:48:335, 1826 
0:0:48:350, 1758 
0:0:48:365, 1684 
0:0:48:380, 1606 
0:0:48:395, 1537 
0:0:48:410, 1464 
0:0:48:426, 1401 
0:0:48:442, 1364 
0:0:48:457, 1328 
0:0:48:472, 1328 
0:0:48:487, 1295 
0:0:48:502, 1277 
0:0:48:518, 1259 
0:0:48:534, 1238 
0:0:48:550, 1218 
0:0:48:566, 1208 
0:0:48:582, 1199 
0:0:48:597, 1200 
0:0:48:612, 1198 
0:0:48:627, 1186 
0:0:48:643, 1187 
0:0:48:659, 1195 
0:0:48:675, 1251 
0:0:48:691, 1397 
0:0:48:707, 1641 
0:0:48:723, 1974 
0:0:48:739, 2454 
0:0:48:754, 2807 
0:0:48:770, 3133 
0:0:48:785, 3353 
0:0:48:801, 3438 
0:0:48:816, 3449 
0:0:48:831, 3421 
0:0:48:846, 3369 
0:0:48:861, 3288 
0:0:48:876, 3212 
0:0:48:892, 3126 
0:0:48:908, 2998 
0:0:48:924, 2893 
0:0:48:940, 2735 
0:0:48:955, 2594 
0:0:48:971, 2457 
0:0:48:986, 2347 
0:0:49:1, 2259 
0:0:49:16, 2184 
0:0:49:32, 2136 
0:0:49:47, 2108 
0:0:49:62, 2084 
0:0:49:77, 2067 
0:0:49:92, 2058 
0:0:49:107, 2030 
0:0:49:122, 1989 
0:0:49:138, 1935 
0:0:49:154, 1882 
0:0:49:170, 1812 
0:0:49:186, 1741 
0:0:49:202, 1654 
0:0:49:218, 1583 
0:0:49:234, 1519 
0:0:49:250, 1482 
0:0:49:266, 1440 
0:0:49:282, 1389 
0:0:49:298, 1365 
0:0:49:313, 1339 
0:0:49:328, 1321 
0:0:49:343, 1284 
0:0:49:359, 1260 
0:0:49:375, 1221 
0:0:49:391, 1205 
0:0:49:407, 1199 
0:0:49:423, 1202 
0:0:49:439, 1207 
0:0:49:455, 1206 
0:0:49:471, 1212 
0:0:49:487, 1222 
0:0:49:503, 1226 
0:0:49:519, 1221 
0:0:49:535, 1218 
0:0:49:550, 1223 
0:0:49:565, 1256 
0:0:49:580, 1372 
0:0:49:596, 1529 
0:0:49:612, 1917 
0:0:49:627, 2306 
0:0:49:643, 2691 
0:0:49:659, 3041 
0:0:49:675, 3367 
0:0:49:691, 3535 
0:0:49:707, 3609 
0:0:49:723, 3596 
0:0:49:739, 3523 
0:0:49:755, 3394 
0:0:49:771, 3273 
0:0:49:786, 3125 
0:0:49:801, 2990 
0:0:49:816, 2841 
0:0:49:832, 2644 
0:0:49:848, 2492 
0:0:49:864, 2343 
0:0:49:879, 2242 
0:0:49:894, 2174 
0:0:49:910, 2141 
0:0:49:926, 2110 
0:0:49:942, 2100 
0:0:49:958, 2083 
0:0:49:973, 2046 
0:0:49:988, 2008 
0:0:50:4, 1968 
0:0:50:19, 1946 
0:0:50:34, 1907 
0:0:50:49, 1869 
0:0:50:65, 1815 
0:0:50:81, 1752 
0:0:50:96, 1652 
0:0:50:111, 1576 
0:0:50:126, 1526 
0:0:50:142, 1462 
0:0:50:158, 1410 
0:0:50:173, 1360 
0:0:50:189, 1326 
0:0:50:205, 1290 
0:0:50:220, 1268 
0:0:50:235, 1267 
0:0:50:250, 1263 
0:0:50:265, 1252 
0:0:50:281, 1233 
0:0:50:296, 1210 
0:0:50:312, 1185 
0:0:50:328, 1175 
0:0:50:344, 1157 
0:0:50:360, 1152 
0:0:50:376, 1165 
0:0:50:392, 1172 
0:0:50:408, 1169 
0:0:50:424, 1156 
0:0:50:440, 1140 
0:0:50:456, 1176 
0:0:50:471, 1221 
0:0:50:486, 1461 
0:0:50:501, 1784 
0:0:50:516, 2068 
0:0:50:532, 2363 
0:0:50:548, 2740 
0:0:50:564, 3163 
0:0:50:580, 3312 
0:0:50:596, 3466 
0:0:50:612, 3498 
0:0:50:627, 3451 
0:0:50:643, 3331 
0:0:50:659, 3269 
0:0:50:675, 3103 
0:0:50:691, 2975 
0:0:50:707, 2801 
0:0:50:723, 2659 
0:0:50:738, 2555 
0:0:50:754, 2386 
0:0:50:770, 2285 
0:0:50:785, 2202 
0:0:50:800, 2142 
0:0:50:816, 2101 
0:0:50:832, 2101 
0:0:50:848, 2099 
0:0:50:863, 2103 
0:0:50:878, 2111 
0:0:50:894, 2104 
0:0:50:910, 2075 
0:0:50:925, 2026 
0:0:50:941, 1977 
0:0:50:956, 1935 
0:0:50:971, 1869 
0:0:50:986, 1803 
0:0:51:2, 1726 
0:0:51:18, 1677 
0:0:51:34, 1633 
0:0:51:50, 1593 
0:0:51:66, 1568 
0:0:51:82, 1531 
0:0:51:98, 1506 
0:0:51:113, 1484 
0:0:51:128, 1459 
0:0:51:144, 1446 
0:0:51:160, 1421 
0:0:51:175, 1394 
0:0:51:190, 1373 
0:0:51:205, 1349 
0:0:51:221, 1325 
0:0:51:237, 1308 
0:0:51:253, 1286 
0:0:51:269, 1279 
0:0:51:285, 1322 
0:0:51:301, 1501 
0:0:51:316, 1763 
0:0:51:332, 2118 
0:0:51:348, 2516 
0:0:51:364, 2883 
0:0:51:380, 3224 
0:0:51:395, 3435 
0:0:51:410, 3546 
0:0:51:426, 3543 
0:0:51:441, 3501 
0:0:51:457, 3390 
0:0:51:473, 3304 
0:0:51:489, 3176 
0:0:51:505, 3058 
0:0:51:520, 2913 
0:0:51:536, 2763 
0:0:51:552, 2652 
0:0:51:568, 2510 
0:0:51:584, 2387 
0:0:51:600, 2295 
0:0:51:615, 2229 
0:0:51:631, 2177 
0:0:51:647, 2142 
0:0:51:662, 2112 
0:0:51:677, 2088 
0:0:51:692, 2050 
0:0:51:708, 2003 
0:0:51:723, 1944 
0:0:51:739, 1881 
0:0:51:755, 1816 
0:0:51:771, 1761 
0:0:51:787, 1718 
0:0:51:803, 1660 
0:0:51:819, 1607 
0:0:51:835, 1547 
0:0:51:851, 1482 
0:0:51:867, 1424 
0:0:51:883, 1383 
0:0:51:898, 1351 
0:0:51:913, 1335 
0:0:51:928, 1315 
0:0:51:944, 1278 
0:0:51:959, 1252 
0:0:51:974, 1222 
0:0:51:989, 1196 
0:0:52:4, 1196 
0:0:52:20, 1201 
0:0:52:36, 1221 
0:0:52:52, 1226 
0:0:52:68, 1224 
0:0:52:84, 1217 
0:0:52:99, 1208 
0:0:52:116, 1191 
0:0:52:131, 1224 
0:0:52:146, 1337 
0:0:52:161, 1485 
0:0:52:177, 1787 
0:0:52:193, 2272 
0:0:52:209, 2682 
0:0:52:224, 3147 
0:0:52:239, 3409 
0:0:52:254, 3610 
0:0:52:270, 3667 
0:0:52:286, 3642 
0:0:52:302, 3550 
0:0:52:318, 3472 
0:0:52:333, 3350 
0:0:52:349, 3225 
0:0:52:364, 3118 
0:0:52:379, 3004 
0:0:52:395, 2892 
0:0:52:410, 2742 
0:0:52:427, 2590 
0:0:52:442, 2495 
0:0:52:457, 2397 
0:0:52:472, 2316 
0:0:52:488, 2275 
0:0:52:504, 2235 
0:0:52:520, 2203 
0:0:52:536, 2181 
0:0:52:552, 2132 
0:0:52:567, 2091 
0:0:52:582, 2060 
0:0:52:597, 2012 
0:0:52:612, 1955 
0:0:52:627, 1888 
0:0:52:643, 1814 
0:0:52:659, 1729 
0:0:52:675, 1664 
0:0:52:691, 1590 
0:0:52:707, 1529 
0:0:52:723, 1464 
0:0:52:739, 1423 
0:0:52:755, 1382 
0:0:52:770, 1369 
0:0:52:785, 1355 
0:0:52:801, 1330 
0:0:52:817, 1315 
0:0:52:832, 1302 
0:0:52:847, 1306 
0:0:52:863, 1309 
0:0:52:879, 1306 
0:0:52:895, 1306 
0:0:52:910, 1295 
0:0:52:925, 1283 
0:0:52:941, 1281 
0:0:52:956, 1310 
0:0:52:972, 1415 
0:0:52:988, 1548 
0:0:53:4, 1791 
0:0:53:19, 2010 
0:0:53:34, 2325 
0:0:53:50, 2672 
0:0:53:65, 2920 
0:0:53:80, 3028 
0:0:53:96, 3126 
0:0:53:112, 3132 
0:0:53:128, 3099 
0:0:53:144, 3039 
0:0:53:159, 2958 
0:0:53:174, 2856 
0:0:53:190, 2790 
0:0:53:205, 2717 
0:0:53:220, 2608 
0:0:53:236, 2459 
0:0:53:252, 2339 
0:0:53:268, 2239 
0:0:53:284, 2167 
0:0:53:299, 2132 
0:0:53:314, 2114 
0:0:53:329, 2093 
0:0:53:344, 2062 
0:0:53:360, 2034 
0:0:53:376, 1965 
0:0:53:392, 1915 
0:0:53:408, 1876 
0:0:53:423, 1820 
0:0:53:438, 1767 
0:0:53:453, 1722 
0:0:53:469, 1669 
0:0:53:485, 1613 
0:0:53:501, 1567 
0:0:53:517, 1517 
0:0:53:533, 1477 
0:0:53:548, 1437 
0:0:53:563, 1415 
0:0:53:579, 1399 
0:0:53:595, 1376 
0:0:53:610, 1372 
0:0:53:626, 1368 
0:0:53:642, 1356 
0:0:53:658, 1341 
0:0:53:674, 1322 
0:0:53:690, 1306 
0:0:53:706, 1292 
0:0:53:721, 1279 
0:0:53:737, 1279 
0:0:53:753, 1271 
0:0:53:768, 1270 
0:0:53:783, 1285 
0:0:53:799, 1338 
0:0:53:815, 1451 
0:0:53:831, 1654 
0:0:53:847, 1917 
0:0:53:862, 2186 
0:0:53:877, 2498 
0:0:53:893, 2706 
0:0:53:909, 2820 
0:0:53:924, 2870 
0:0:53:940, 2852 
0:0:53:956, 2806 
0:0:53:972, 2730 
0:0:53:988, 2660 
0:0:54:3, 2580 
0:0:54:19, 2523 
0:0:54:34, 2436 
0:0:54:50, 2338 
0:0:54:65, 2247 
0:0:54:80, 2170 
0:0:54:95, 2126 
0:0:54:110, 2089 
0:0:54:125, 2081 
0:0:54:141, 2077 
0:0:54:157, 2081 
0:0:54:173, 2072 
0:0:54:188, 2044 
0:0:54:204, 1997 
0:0:54:220, 1962 
0:0:54:235, 1921 
0:0:54:250, 1886 
0:0:54:265, 1850 
0:0:54:281, 1806 
0:0:54:297, 1769 
0:0:54:313, 1740 
0:0:54:329, 1718 
0:0:54:344, 1686 
0:0:54:359, 1665 
0:0:54:374, 1639 
0:0:54:390, 1621 
0:0:54:406, 1621 
0:0:54:421, 1611 
0:0:54:436, 1595 
0:0:54:451, 1577 
0:0:54:466, 1564 
0:0:54:481, 1558 
0:0:54:496, 1559 
0:0:54:512, 1552 
0:0:54:528, 1532 
0:0:54:544, 1509 
0:0:54:559, 1514 
0:0:54:575, 1593 
0:0:54:591, 1730 
0:0:54:607, 1932 
0:0:54:622, 2221 
0:0:54:637, 2444 
0:0:54:652, 2655 
0:0:54:667, 2742 
0:0:54:683, 2816 
0:0:54:698, 2834 
0:0:54:713, 2810 
0:0:54:729, 2777 
0:0:54:745, 2731 
0:0:54:761, 2663 
0:0:54:777, 2633 
0:0:54:793, 2559 
0:0:54:809, 2464 
0:0:54:824, 2365 
0:0:54:839, 2305 
0:0:54:854, 2256 
0:0:54:870, 2225 
0:0:54:886, 2179 
0:0:54:902, 2153 
0:0:54:918, 2148 
0:0:54:933, 2143 
0:0:54:948, 2139 
0:0:54:964, 2115 
0:0:54:980, 2066 
0:0:54:996, 2023 
0:0:55:12, 1972 
0:0:55:28, 1921 
0:0:55:44, 1842 
0:0:55:60, 1797 
0:0:55:75, 1754 
0:0:55:91, 1707 
0:0:55:106, 1683 
0:0:55:122, 1643 
0:0:55:138, 1602 
0:0:55:154, 1556 
0:0:55:169, 1529 
0:0:55:184, 1499 
0:0:55:199, 1477 
0:0:55:214, 1466 
0:0:55:230, 1460 
0:0:55:246, 1447 
0:0:55:262, 1434 
0:0:55:277, 1425 
0:0:55:293, 1414 
0:0:55:309, 1406 
0:0:55:325, 1394 
0:0:55:341, 1384 
0:0:55:356, 1371 
0:0:55:371, 1372 
0:0:55:387, 1396 
0:0:55:402, 1477 
0:0:55:417, 1631 
0:0:55:432, 1730 
0:0:55:448, 1895 
0:0:55:463, 2131 
0:0:55:478, 2352 
0:0:55:494, 2495 
0:0:55:510, 2635 
0:0:55:526, 2682 
0:0:55:542, 2692 
0:0:55:557, 2666 
0:0:55:572, 2622 
0:0:55:588, 2591 
0:0:55:604, 2547 
0:0:55:619, 2497 
0:0:55:634, 2439 
0:0:55:649, 2363 
0:0:55:664, 2276 
0:0:55:679, 2194 
0:0:55:695, 2172 
0:0:55:711, 2113 
0:0:55:726, 2059 
0:0:55:742, 2041 
0:0:55:758, 2024 
0:0:55:774, 2021 
0:0:55:789, 2018 
0:0:55:805, 2004 
0:0:55:821, 1977 
0:0:55:837, 1943 
0:0:55:853, 1907 
0:0:55:868, 1860 
0:0:55:883, 1821 
0:0:55:899, 1780 
0:0:55:915, 1731 
0:0:55:930, 1701 
0:0:55:946, 1682 
0:0:55:962, 1649 
0:0:55:978, 1627 
0:0:55:994, 1610 
0:0:56:9, 1583 
0:0:56:24, 1559 
0:0:56:40, 1528 
0:0:56:56, 1494 
0:0:56:72, 1472 
0:0:56:88, 1447 
0:0:56:103, 1431 
0:0:56:118, 1413 
0:0:56:134, 1391 
0:0:56:150, 1382 
0:0:56:166, 1376 
0:0:56:182, 1377 
0:0:56:198, 1378 
0:0:56:214, 1377 
0:0:56:229, 1372 
0:0:56:245, 1367 
0:0:56:261, 1407 
0:0:56:276, 1506 
0:0:56:291, 1704 
0:0:56:307, 1919 
0:0:56:322, 2183 
0:0:56:338, 2312 
0:0:56:353, 2420 
0:0:56:368, 2469 
0:0:56:384, 2459 
0:0:56:399, 2423 
0:0:56:415, 2391 
0:0:56:431, 2355 
0:0:56:447, 2312 
0:0:56:463, 2263 
0:0:56:478, 2202 
0:0:56:493, 2139 
0:0:56:509, 2072 
0:0:56:524, 2004 
0:0:56:540, 1945 
0:0:56:556, 1905 
0:0:56:571, 1888 
0:0:56:586, 1875 
0:0:56:602, 1875 
0:0:56:619, 1867 
0:0:56:635, 1864 
0:0:56:651, 1859 
0:0:56:667, 1845 
0:0:56:683, 1833 
0:0:56:699, 1814 
0:0:56:715, 1799 
0:0:56:730, 1775 
0:0:56:746, 1742 
0:0:56:762, 1714 
0:0:56:778, 1692 
0:0:56:794, 1659 
0:0:56:809, 1622 
0:0:56:824, 1586 
0:0:56:840, 1554 
0:0:56:856, 1532 
0:0:56:872, 1519 
0:0:56:888, 1499 
0:0:56:904, 1494 
0:0:56:919, 1481 
0:0:56:934, 1467 
0:0:56:949, 1453 
0:0:56:965, 1441 
0:0:56:981, 1423 
0:0:56:997, 1401 
0:0:57:13, 1380 
0:0:57:28, 1379 
0:0:57:43, 1409 
0:0:57:58, 1542 
0:0:57:74, 1718 
0:0:57:90, 1928 
0:0:57:105, 2135 
0:0:57:120, 2262 
0:0:57:136, 2426 
0:0:57:152, 2477 
0:0:57:168, 2489 
0:0:57:184, 2481 
0:0:57:200, 2446 
0:0:57:215, 2407 
0:0:57:231, 2358 
0:0:57:246, 2311 
0:0:57:262, 2268 
0:0:57:277, 2185 
0:0:57:292, 2107 
0:0:57:308, 2033 
0:0:57:323, 1969 
0:0:57:339, 1929 
0:0:57:354, 1909 
0:0:57:369, 1901 
0:0:57:385, 1910 
0:0:57:401, 1924 
0:0:57:417, 1941 
0:0:57:432, 1949 
0:0:57:448, 1944 
0:0:57:464, 1934 
0:0:57:480, 1908 
0:0:57:496, 1893 
0:0:57:511, 1874 
0:0:57:526, 1849 
0:0:57:541, 1828 
0:0:57:556, 1800 
0:0:57:572, 1785 
0:0:57:588, 1783 
0:0:57:604, 1785 
0:0:57:619, 1775 
0:0:57:636, 1759 
0:0:57:651, 1743 
0:0:57:666, 1717 
0:0:57:682, 1687 
0:0:57:698, 1661 
0:0:57:714, 1639 
0:0:57:730, 1646 
0:0:57:745, 1652 
0:0:57:760, 1650 
0:0:57:776, 1629 
0:0:57:792, 1599 
0:0:57:808, 1569 
0:0:57:823, 1555 
0:0:57:839, 1569 
0:0:57:855, 1652 
0:0:57:871, 1822 
0:0:57:887, 2042 
0:0:57:903, 2275 
0:0:57:919, 2484 
0:0:57:934, 2646 
0:0:57:950, 2693 
0:0:57:965, 2740 
0:0:57:980, 2744 
0:0:57:995, 2713 
0:0:58:10, 2679 
0:0:58:25, 2624 
0:0:58:41, 2568 
0:0:58:56, 2517 
0:0:58:71, 2467 
0:0:58:87, 2425 
0:0:58:103, 2351 
0:0:58:119, 2278 
0:0:58:135, 2225 
0:0:58:151, 2162 
0:0:58:167, 2124 
0:0:58:183, 2112 
0:0:58:199, 2116 
0:0:58:214, 2125 
0:0:58:229, 2131 
0:0:58:245, 2119 
0:0:58:261, 2094 
0:0:58:276, 2068 
0:0:58:292, 2033 
0:0:58:307, 2008 
0:0:58:322, 1977 
0:0:58:338, 1933 
0:0:58:354, 1889 
0:0:58:369, 1821 
0:0:58:384, 1778 
0:0:58:399, 1737 
0:0:58:414, 1708 
0:0:58:430, 1696 
0:0:58:445, 1679 
0:0:58:460, 1660 
0:0:58:476, 1655 
0:0:58:492, 1644 
0:0:58:508, 1631 
0:0:58:524, 1613 
0:0:58:540, 1581 
0:0:58:555, 1561 
0:0:58:570, 1534 
0:0:58:586, 1504 
0:0:58:602, 1474 
0:0:58:618, 1455 
0:0:58:633, 1480 
0:0:58:648, 1536 
0:0:58:664, 1703 
0:0:58:679, 1844 
0:0:58:694, 2038 
0:0:58:709, 2222 
0:0:58:725, 2346 
0:0:58:741, 2469 
0:0:58:757, 2492 
0:0:58:773, 2503 
0:0:58:789, 2492 
0:0:58:805, 2471 
0:0:58:820, 2426 
0:0:58:836, 2407 
0:0:58:852, 2383 
0:0:58:868, 2345 
0:0:58:884, 2298 
0:0:58:900, 2227 
0:0:58:915, 2169 
0:0:58:931, 2115 
0:0:58:947, 2050 
0:0:58:963, 2019 
0:0:58:979, 1984 
0:0:58:995, 1965 
0:0:59:11, 1951 
0:0:59:27, 1934 
0:0:59:43, 1925 
0:0:59:58, 1907 
0:0:59:73, 1883 
0:0:59:84, 1869 
0:0:59:104, 1825 
0:0:59:120, 1770 
0:0:59:135, 1735 
0:0:59:150, 1692 
0:0:59:165, 1654 
0:0:59:180, 1610 
0:0:59:196, 1573 
0:0:59:212, 1556 
0:0:59:228, 1550 
0:0:59:244, 1544 
0:0:59:259, 1544 
0:0:59:275, 1538 
0:0:59:291, 1516 
0:0:59:307, 1506 
0:0:59:322, 1488 
0:0:59:338, 1478 
0:0:59:354, 1475 
0:0:59:370, 1468 
0:0:59:385, 1464 
0:0:59:400, 1444 
0:0:59:415, 1427 
0:0:59:431, 1416 
0:0:59:447, 1398 
0:0:59:463, 1389 
0:0:59:479, 1385 
0:0:59:495, 1394 
0:0:59:511, 1444 
0:0:59:527, 1556 
0:0:59:543, 1737 
0:0:59:559, 1950 
0:0:59:574, 2158 
0:0:59:589, 2342 
0:0:59:605, 2471 
0:0:59:620, 2508 
0:0:59:635, 2494 
0:0:59:650, 2444 
0:0:59:665, 2384 
0:0:59:681, 2320 
0:0:59:696, 2286 
0:0:59:712, 2257 
0:0:59:728, 2227 
0:0:59:744, 2189 
0:0:59:760, 2117 
0:0:59:776, 2046 
0:0:59:791, 1983 
0:0:59:806, 1940 
0:0:59:821, 1904 
0:0:59:837, 1906 
0:0:59:852, 1917 
0:0:59:867, 1934 
0:0:59:883, 1944 
0:0:59:899, 1937 
0:0:59:914, 1935 
0:0:59:930, 1917 
0:0:59:945, 1889 
0:0:59:961, 1854 
0:0:59:977, 1795 
0:0:59:993, 1742 
0:1:0:9, 1697 
0:1:0:24, 1663 
0:1:0:40, 1631 
0:1:0:56, 1585 
0:1:0:72, 1547 
0:1:0:87, 1534 
0:1:0:102, 1525 
0:1:0:117, 1509 
0:1:0:133, 1500 
0:1:0:149, 1481 
0:1:0:164, 1466 
0:1:0:179, 1447 
0:1:0:195, 1419 
0:1:0:211, 1399 
0:1:0:227, 1383 
0:1:0:243, 1370 
0:1:0:259, 1377 
0:1:0:275, 1390 
0:1:0:290, 1399 
0:1:0:306, 1408 
0:1:0:321, 1395 
0:1:0:336, 1386 
0:1:0:351, 1371 
0:1:0:367, 1368 
0:1:0:382, 1383 
0:1:0:398, 1459 
0:1:0:413, 1617 
0:1:0:429, 1830 
0:1:0:445, 2117 
0:1:0:460, 2266 
0:1:0:475, 2439 
0:1:0:491, 2535 
0:1:0:507, 2541 
0:1:0:522, 2534 
0:1:0:538, 2507 
0:1:0:553, 2451 
0:1:0:568, 2377 
0:1:0:584, 2317 
0:1:0:600, 2252 
0:1:0:615, 2215 
0:1:0:631, 2175 
0:1:0:647, 2136 
0:1:0:663, 2109 
0:1:0:678, 2067 
0:1:0:694, 2011 
0:1:0:710, 1980 
0:1:0:725, 1962 
0:1:0:741, 1968 
0:1:0:757, 1978 
0:1:0:773, 1975 
0:1:0:788, 1965 
0:1:0:803, 1937 
0:1:0:818, 1914 
0:1:0:834, 1890 
0:1:0:849, 1851 
0:1:0:864, 1809 
0:1:0:879, 1775 
0:1:0:894, 1722 
0:1:0:909, 1690 
0:1:0:925, 1662 
0:1:0:941, 1650 
0:1:0:956, 1637 
0:1:0:972, 1613 
0:1:0:988, 1592 
0:1:1:4, 1588 
0:1:1:19, 1578 
0:1:1:34, 1557 
0:1:1:50, 1539 
0:1:1:66, 1515 
0:1:1:82, 1501 
0:1:1:98, 1489 
0:1:1:114, 1480 
0:1:1:129, 1477 
0:1:1:145, 1476 
0:1:1:161, 1476 
0:1:1:177, 1477 
0:1:1:192, 1489 
0:1:1:208, 1495 
0:1:1:224, 1498 
0:1:1:239, 1512 
0:1:1:254, 1567 
0:1:1:269, 1685 
0:1:1:284, 1856 
0:1:1:300, 2066 
0:1:1:316, 2319 
0:1:1:332, 2503 
0:1:1:347, 2592 
0:1:1:363, 2626 
0:1:1:378, 2651 
0:1:1:394, 2646 
0:1:1:410, 2611 
0:1:1:426, 2546 
0:1:1:442, 2499 
0:1:1:458, 2450 
0:1:1:473, 2420 
0:1:1:488, 2380 
0:1:1:503, 2317 
0:1:1:518, 2260 
0:1:1:533, 2207 
0:1:1:549, 2165 
0:1:1:565, 2145 
0:1:1:581, 2123 
0:1:1:597, 2123 
0:1:1:613, 2131 
0:1:1:629, 2131 
0:1:1:645, 2129 
0:1:1:661, 2113 
0:1:1:677, 2073 
0:1:1:693, 2032 
0:1:1:709, 1989 
0:1:1:724, 1965 
0:1:1:739, 1929 
0:1:1:754, 1914 
0:1:1:770, 1889 
0:1:1:786, 1854 
0:1:1:802, 1831 
0:1:1:818, 1800 
0:1:1:834, 1763 
0:1:1:849, 1724 
0:1:1:864, 1682 
0:1:1:879, 1654 
0:1:1:894, 1640 
0:1:1:910, 1626 
0:1:1:926, 1608 
0:1:1:941, 1590 
0:1:1:956, 1556 
0:1:1:971, 1540 
0:1:1:986, 1533 
0:1:2:2, 1518 
0:1:2:18, 1534 
0:1:2:34, 1584 
0:1:2:50, 1684 
0:1:2:66, 1902 
0:1:2:82, 2118 
0:1:2:98, 2337 
0:1:2:114, 2558 
0:1:2:129, 2694 
0:1:2:144, 2759 
0:1:2:159, 2769 
0:1:2:175, 2758 
0:1:2:190, 2723 
0:1:2:205, 2649 
0:1:2:222, 2573 
0:1:2:238, 2517 
0:1:2:254, 2414 
0:1:2:270, 2360 
0:1:2:286, 2269 
0:1:2:302, 2223 
0:1:2:318, 2198 
0:1:2:333, 2187 
0:1:2:349, 2197 
0:1:2:364, 2204 
0:1:2:379, 2202 
0:1:2:395, 2186 
0:1:2:411, 2157 
0:1:2:426, 2132 
0:1:2:441, 2104 
0:1:2:457, 2052 
0:1:2:473, 2009 
0:1:2:489, 1955 
0:1:2:504, 1919 
0:1:2:520, 1889 
0:1:2:536, 1858 
0:1:2:552, 1825 
0:1:2:567, 1810 
0:1:2:582, 1785 
0:1:2:597, 1760 
0:1:2:612, 1725 
0:1:2:627, 1691 
0:1:2:643, 1678 
0:1:2:658, 1667 
0:1:2:673, 1652 
0:1:2:689, 1650 
0:1:2:705, 1646 
0:1:2:722, 1628 
0:1:2:738, 1610 
0:1:2:754, 1601 
0:1:2:770, 1654 
0:1:2:786, 1731 
0:1:2:802, 1908 
0:1:2:818, 2080 
0:1:2:833, 2324 
0:1:2:848, 2573 
0:1:2:863, 2686 
0:1:2:879, 2884 
0:1:2:894, 2979 
0:1:2:909, 3012 
0:1:2:925, 3001 
0:1:2:941, 2984 
0:1:2:957, 2945 
0:1:2:973, 2900 
0:1:2:988, 2862 
0:1:3:3, 2806 
0:1:3:18, 2763 
0:1:3:34, 2698 
0:1:3:49, 2624 
0:1:3:65, 2538 
0:1:3:80, 2477 
0:1:3:96, 2447 
0:1:3:112, 2432 
0:1:3:127, 2412 
0:1:3:142, 2401 
0:1:3:157, 2382 
0:1:3:173, 2333 
0:1:3:189, 2300 
0:1:3:205, 2238 
0:1:3:221, 2165 
0:1:3:236, 2103 
0:1:3:251, 2036 
0:1:3:266, 1990 
0:1:3:281, 1943 
0:1:3:296, 1895 
0:1:3:312, 1848 
0:1:3:328, 1797 
0:1:3:343, 1756 
0:1:3:358, 1723 
0:1:3:373, 1689 
0:1:3:389, 1664 
0:1:3:405, 1634 
0:1:3:420, 1615 
0:1:3:436, 1607 
0:1:3:451, 1594 
0:1:3:466, 1574 
0:1:3:481, 1565 
0:1:3:497, 1569 
0:1:3:513, 1632 
0:1:3:529, 1760 
0:1:3:545, 1958 
0:1:3:561, 2289 
0:1:3:577, 2562 
0:1:3:592, 2814 
0:1:3:607, 2941 
0:1:3:622, 3054 
0:1:3:638, 3122 
0:1:3:654, 3128 
0:1:3:670, 3082 
0:1:3:686, 3016 
0:1:3:701, 2941 
0:1:3:716, 2853 
0:1:3:732, 2783 
0:1:3:748, 2718 
0:1:3:764, 2605 
0:1:3:780, 2506 
0:1:3:796, 2407 
0:1:3:812, 2330 
0:1:3:827, 2301 
0:1:3:843, 2257 
0:1:3:858, 2238 
0:1:3:873, 2223 
0:1:3:889, 2201 
0:1:3:905, 2170 
0:1:3:920, 2136 
0:1:3:936, 2099 
0:1:3:952, 2054 
0:1:3:968, 2028 
0:1:3:983, 1990 
0:1:3:998, 1940 
0:1:4:14, 1875 
0:1:4:29, 1847 
0:1:4:44, 1779 
0:1:4:59, 1719 
0:1:4:74, 1673 
0:1:4:90, 1624 
0:1:4:105, 1578 
0:1:4:120, 1533 
0:1:4:136, 1502 
0:1:4:151, 1492 
0:1:4:166, 1471 
0:1:4:182, 1446 
0:1:4:198, 1427 
0:1:4:214, 1387 
0:1:4:229, 1376 
0:1:4:245, 1374 
0:1:4:260, 1405 
0:1:4:276, 1457 
0:1:4:291, 1584 
0:1:4:306, 1851 
0:1:4:323, 2132 
0:1:4:339, 2480 
0:1:4:355, 2771 
0:1:4:371, 2884 
0:1:4:387, 2925 
0:1:4:403, 2903 
0:1:4:419, 2851 
0:1:4:434, 2788 
0:1:4:450, 2713 
0:1:4:466, 2626 
0:1:4:481, 2538 
0:1:4:496, 2442 
0:1:4:511, 2393 
0:1:4:527, 2322 
0:1:4:542, 2228 
0:1:4:557, 2142 
0:1:4:573, 2079 
0:1:4:589, 2048 
0:1:4:605, 2034 
0:1:4:620, 2019 
0:1:4:635, 2017 
0:1:4:650, 2008 
0:1:4:665, 1992 
0:1:4:681, 1955 
0:1:4:697, 1913 
0:1:4:713, 1857 
0:1:4:729, 1816 
0:1:4:745, 1765 
0:1:4:760, 1713 
0:1:4:775, 1673 
0:1:4:791, 1626 
0:1:4:807, 1597 
0:1:4:822, 1564 
0:1:4:837, 1522 
0:1:4:853, 1502 
0:1:4:869, 1477 
0:1:4:885, 1450 
0:1:4:901, 1420 
0:1:4:917, 1384 
0:1:4:932, 1361 
0:1:4:948, 1351 
0:1:4:964, 1339 
0:1:4:980, 1331 
0:1:4:995, 1321 
0:1:5:10, 1315 
0:1:5:26, 1336 
0:1:5:42, 1449 
0:1:5:58, 1637 
0:1:5:74, 1889 
0:1:5:90, 2089 
0:1:5:106, 2339 
0:1:5:121, 2540 
0:1:5:137, 2627 
0:1:5:152, 2674 
0:1:5:167, 2670 
0:1:5:183, 2626 
0:1:5:198, 2583 
0:1:5:213, 2507 
0:1:5:228, 2424 
0:1:5:243, 2351 
0:1:5:258, 2265 
0:1:5:274, 2199 
0:1:5:290, 2100 
0:1:5:306, 2047 
0:1:5:322, 2013 
0:1:5:338, 2003 
0:1:5:354, 2005 
0:1:5:370, 2005 
0:1:5:386, 2002 
0:1:5:402, 1988 
0:1:5:418, 1968 
0:1:5:433, 1942 
0:1:5:449, 1907 
0:1:5:464, 1877 
0:1:5:479, 1815 
0:1:5:495, 1757 
0:1:5:510, 1714 
0:1:5:525, 1677 
0:1:5:541, 1635 
0:1:5:557, 1600 
0:1:5:572, 1575 
0:1:5:587, 1543 
0:1:5:603, 1514 
0:1:5:619, 1466 
0:1:5:635, 1426 
0:1:5:651, 1406 
0:1:5:666, 1399 
0:1:5:682, 1387 
0:1:5:697, 1376 
0:1:5:712, 1353 
0:1:5:728, 1335 
0:1:5:744, 1322 
0:1:5:759, 1311 
0:1:5:774, 1312 
0:1:5:789, 1363 
0:1:5:804, 1519 
0:1:5:819, 1564 
0:1:5:834, 1726 
0:1:5:850, 1970 
0:1:5:866, 2264 
0:1:5:882, 2460 
0:1:5:898, 2569 
0:1:5:914, 2607 
0:1:5:930, 2595 
0:1:5:945, 2548 
0:1:5:960, 2491 
0:1:5:976, 2413 
0:1:5:992, 2334 
0:1:6:8, 2224 
0:1:6:24, 2145 
0:1:6:39, 2090 
0:1:6:55, 2004 
0:1:6:71, 1968 
0:1:6:86, 1936 
0:1:6:101, 1916 
0:1:6:117, 1907 
0:1:6:133, 1904 
0:1:6:149, 1908 
0:1:6:164, 1909 
0:1:6:179, 1901 
0:1:6:195, 1886 
0:1:6:211, 1866 
0:1:6:226, 1838 
0:1:6:242, 1789 
0:1:6:258, 1736 
0:1:6:274, 1655 
0:1:6:290, 1610 
0:1:6:306, 1592 
0:1:6:322, 1578 
0:1:6:338, 1571 
0:1:6:354, 1562 
0:1:6:370, 1546 
0:1:6:385, 1529 
0:1:6:400, 1507 
0:1:6:415, 1506 
0:1:6:430, 1519 
0:1:6:446, 1538 
0:1:6:462, 1571 
0:1:6:477, 1623 
0:1:6:493, 1725 
0:1:6:509, 1874 
0:1:6:524, 2066 
0:1:6:539, 2297 
0:1:6:554, 2519 
0:1:6:569, 2698 
0:1:6:585, 2830 
0:1:6:601, 2895 
0:1:6:617, 2917 
0:1:6:632, 2895 
0:1:6:647, 2825 
0:1:6:662, 2734 
0:1:6:678, 2601 
0:1:6:694, 2497 
0:1:6:710, 2359 
0:1:6:726, 2259 
0:1:6:742, 2172 
0:1:6:758, 2108 
0:1:6:774, 2080 
0:1:6:789, 2071 
0:1:6:804, 2068 
0:1:6:820, 2071 
0:1:6:835, 2068 
0:1:6:851, 2071 
0:1:6:866, 2059 
0:1:6:881, 2029 
0:1:6:897, 1999 
0:1:6:913, 1927 
0:1:6:929, 1869 
0:1:6:945, 1818 
0:1:6:961, 1768 
0:1:6:976, 1737 
0:1:6:991, 1694 
0:1:7:7, 1654 
0:1:7:23, 1607 
0:1:7:38, 1557 
0:1:7:54, 1509 
0:1:7:69, 1476 
0:1:7:84, 1456 
0:1:7:99, 1454 
0:1:7:114, 1442 
0:1:7:130, 1417 
0:1:7:146, 1396 
0:1:7:161, 1383 
0:1:7:176, 1396 
0:1:7:192, 1456 
0:1:7:208, 1573 
0:1:7:224, 1776 
0:1:7:239, 2032 
0:1:7:255, 2301 
0:1:7:271, 2609 
0:1:7:287, 2803 
0:1:7:303, 2896 
0:1:7:319, 2883 
0:1:7:334, 2843 
0:1:7:349, 2799 
0:1:7:364, 2725 
0:1:7:380, 2670 
0:1:7:396, 2574 
0:1:7:412, 2493 
0:1:7:428, 2402 
0:1:7:444, 2320 
0:1:7:460, 2262 
0:1:7:476, 2223 
0:1:7:492, 2160 
0:1:7:508, 2140 
0:1:7:524, 2144 
0:1:7:540, 2156 
0:1:7:556, 2168 
0:1:7:571, 2159 
0:1:7:586, 2146 
0:1:7:602, 2126 
0:1:7:618, 2069 
0:1:7:633, 2029 
0:1:7:649, 1977 
0:1:7:665, 1925 
0:1:7:680, 1882 
0:1:7:696, 1851 
0:1:7:712, 1816 
0:1:7:727, 1799 
0:1:7:743, 1773 
0:1:7:759, 1749 
0:1:7:774, 1737 
0:1:7:790, 1720 
0:1:7:805, 1694 
0:1:7:820, 1678 
0:1:7:836, 1667 
0:1:7:852, 1660 
0:1:7:867, 1687 
0:1:7:883, 1687 
0:1:7:899, 1759 
0:1:7:915, 1894 
0:1:7:931, 2143 
0:1:7:947, 2386 
0:1:7:963, 2627 
0:1:7:979, 2849 
0:1:7:995, 3045 
0:1:8:10, 3115 
0:1:8:25, 3147 
0:1:8:40, 3133 
0:1:8:55, 3081 
0:1:8:71, 3015 
0:1:8:87, 2941 
0:1:8:103, 2869 
0:1:8:119, 2772 
0:1:8:134, 2709 
0:1:8:150, 2605 
0:1:8:166, 2517 
0:1:8:182, 2423 
0:1:8:198, 2386 
0:1:8:214, 2331 
0:1:8:230, 2305 
0:1:8:246, 2280 
0:1:8:262, 2231 
0:1:8:277, 2184 
0:1:8:292, 2121 
0:1:8:308, 2083 
0:1:8:324, 2032 
0:1:8:339, 2001 
0:1:8:355, 1979 
0:1:8:371, 1953 
0:1:8:387, 1940 
0:1:8:403, 1929 
0:1:8:419, 1905 
0:1:8:435, 1882 
0:1:8:451, 1866 
0:1:8:467, 1850 
0:1:8:482, 1838 
0:1:8:498, 1820 
0:1:8:513, 1810 
0:1:8:528, 1798 
0:1:8:544, 1775 
0:1:8:560, 1783 
0:1:8:576, 1834 
0:1:8:592, 2002 
0:1:8:608, 2144 
0:1:8:624, 2416 
0:1:8:640, 2628 
0:1:8:655, 2803 
0:1:8:671, 2913 
0:1:8:687, 2951 
0:1:8:703, 2934 
0:1:8:719, 2875 
0:1:8:735, 2817 
0:1:8:750, 2746 
0:1:8:765, 2662 
0:1:8:780, 2585 
0:1:8:795, 2526 
0:1:8:811, 2446 
0:1:8:826, 2376 
0:1:8:842, 2311 
0:1:8:858, 2254 
0:1:8:874, 2201 
0:1:8:890, 2174 
0:1:8:905, 2142 
0:1:8:920, 2116 
0:1:8:936, 2106 
0:1:8:952, 2089 
0:1:8:968, 2071 
0:1:8:983, 2059 
0:1:8:998, 2031 
0:1:9:13, 2003 
0:1:9:28, 1981 
0:1:9:44, 1937 
0:1:9:60, 1896 
0:1:9:76, 1861 
0:1:9:92, 1812 
0:1:9:107, 1772 
0:1:9:122, 1733 
0:1:9:138, 1700 
0:1:9:154, 1672 
0:1:9:170, 1642 
0:1:9:186, 1620 
0:1:9:202, 1598 
0:1:9:217, 1597 
0:1:9:232, 1615 
0:1:9:248, 1653 
0:1:9:264, 1764 
0:1:9:280, 1892 
0:1:9:296, 2099 
0:1:9:312, 2264 
0:1:9:328, 2378 
0:1:9:344, 2541 
0:1:9:360, 2607 
0:1:9:375, 2627 
0:1:9:391, 2637 
0:1:9:407, 2611 
0:1:9:423, 2576 
0:1:9:439, 2501 
0:1:9:454, 2438 
0:1:9:470, 2380 
0:1:9:486, 2315 
0:1:9:502, 2246 
0:1:9:518, 2171 
0:1:9:533, 2071 
0:1:9:549, 2011 
0:1:9:565, 1965 
0:1:9:580, 1943 
0:1:9:595, 1940 
0:1:9:610, 1934 
0:1:9:625, 1935 
0:1:9:641, 1934 
0:1:9:656, 1911 
0:1:9:671, 1894 
0:1:9:687, 1874 
0:1:9:703, 1853 
0:1:9:719, 1839 
0:1:9:735, 1834 
0:1:9:751, 1837 
0:1:9:767, 1830 
0:1:9:782, 1819 
0:1:9:798, 1782 
0:1:9:813, 1729 
0:1:9:829, 1720 
0:1:9:844, 1675 
0:1:9:859, 1626 
0:1:9:875, 1601 
0:1:9:890, 1571 
0:1:9:905, 1554 
0:1:9:920, 1537 
0:1:9:935, 1517 
0:1:9:950, 1510 
0:1:9:965, 1512 
0:1:9:981, 1557 
0:1:9:997, 1677 
0:1:10:13, 1806 
0:1:10:29, 2001 
0:1:10:44, 2149 
0:1:10:59, 2358 
0:1:10:74, 2480 
0:1:10:90, 2544 
0:1:10:106, 2562 
0:1:10:122, 2551 
0:1:10:138, 2528 
0:1:10:153, 2481 
0:1:10:168, 2453 
0:1:10:184, 2411 
0:1:10:200, 2335 
0:1:10:216, 2263 
0:1:10:231, 2149 
0:1:10:247, 2082 
0:1:10:263, 2015 
0:1:10:278, 1980 
0:1:10:293, 1982 
0:1:10:309, 1998 
0:1:10:325, 2013 
0:1:10:341, 2019 
0:1:10:357, 2013 
0:1:10:373, 1983 
0:1:10:389, 1965 
0:1:10:405, 1924 
0:1:10:421, 1896 
0:1:10:436, 1840 
0:1:10:452, 1795 
0:1:10:467, 1743 
0:1:10:483, 1683 
0:1:10:499, 1631 
0:1:10:514, 1582 
0:1:10:530, 1536 
0:1:10:546, 1511 
0:1:10:562, 1499 
0:1:10:578, 1477 
0:1:10:594, 1465 
0:1:10:610, 1456 
0:1:10:625, 1455 
0:1:10:641, 1471 
0:1:10:656, 1480 
0:1:10:672, 1514 
0:1:10:688, 1526 
0:1:10:703, 1518 
0:1:10:719, 1512 
0:1:10:735, 1521 
0:1:10:750, 1559 
0:1:10:765, 1677 
0:1:10:780, 1788 
0:1:10:796, 1977 
0:1:10:811, 2177 
0:1:10:827, 2352 
0:1:10:843, 2426 
0:1:10:859, 2526 
0:1:10:874, 2579 
0:1:10:890, 2594 
0:1:10:905, 2578 
0:1:10:921, 2547 
0:1:10:937, 2505 
0:1:10:953, 2461 
0:1:10:969, 2411 
0:1:10:985, 2344 
0:1:11:0, 2269 
0:1:11:15, 2186 
0:1:11:31, 2100 
0:1:11:47, 2023 
0:1:11:63, 1971 
0:1:11:79, 1939 
0:1:11:95, 1923 
0:1:11:111, 1922 
0:1:11:127, 1922 
0:1:11:143, 1924 
0:1:11:159, 1922 
0:1:11:175, 1921 
0:1:11:190, 1916 
0:1:11:205, 1893 
0:1:11:220, 1874 
0:1:11:235, 1845 
0:1:11:251, 1808 
0:1:11:266, 1794 
0:1:11:281, 1774 
0:1:11:296, 1740 
0:1:11:312, 1707 
0:1:11:327, 1673 
0:1:11:343, 1640 
0:1:11:359, 1605 
0:1:11:375, 1576 
0:1:11:391, 1559 
0:1:11:407, 1538 
0:1:11:423, 1527 
0:1:11:439, 1522 
0:1:11:454, 1512 
0:1:11:469, 1509 
0:1:11:484, 1512 
0:1:11:500, 1499 
0:1:11:516, 1485 
0:1:11:531, 1465 
0:1:11:547, 1472 
0:1:11:563, 1552 
0:1:11:579, 1708 
0:1:11:596, 1918 
0:1:11:612, 2136 
0:1:11:628, 2342 
0:1:11:644, 2507 
0:1:11:660, 2587 
0:1:11:676, 2599 
0:1:11:691, 2575 
0:1:11:706, 2540 
0:1:11:722, 2503 
0:1:11:737, 2466 
0:1:11:753, 2439 
0:1:11:769, 2394 
0:1:11:785, 2375 
0:1:11:800, 2367 
0:1:11:815, 2343 
0:1:11:831, 2302 
0:1:11:847, 2246 
0:1:11:863, 2169 
0:1:11:879, 2129 
0:1:11:895, 2091 
0:1:11:911, 2077 
0:1:11:926, 2079 
0:1:11:941, 2079 
0:1:11:957, 2071 
0:1:11:973, 2056 
0:1:11:989, 2026 
0:1:12:5, 1988 
0:1:12:21, 1957 
0:1:12:37, 1905 
0:1:12:53, 1839 
0:1:12:69, 1776 
0:1:12:85, 1741 
0:1:12:101, 1703 
0:1:12:116, 1650 
0:1:12:131, 1609 
0:1:12:147, 1565 
0:1:12:162, 1538 
0:1:12:177, 1514 
0:1:12:192, 1484 
0:1:12:207, 1445 
0:1:12:222, 1406 
0:1:12:238, 1387 
0:1:12:254, 1383 
0:1:12:270, 1396 
0:1:12:286, 1398 
0:1:12:302, 1394 
0:1:12:318, 1380 
0:1:12:333, 1375 
0:1:12:349, 1385 
0:1:12:365, 1443 
0:1:12:381, 1557 
0:1:12:396, 1724 
0:1:12:411, 1937 
0:1:12:427, 2102 
0:1:12:442, 2305 
0:1:12:457, 2446 
0:1:12:472, 2547 
0:1:12:488, 2594 
0:1:12:504, 2597 
0:1:12:520, 2580 
0:1:12:536, 2549 
0:1:12:552, 2498 
0:1:12:568, 2421 
0:1:12:584, 2345 
0:1:12:599, 2274 
0:1:12:614, 2189 
0:1:12:629, 2163 
0:1:12:644, 2124 
0:1:12:659, 2099 
0:1:12:674, 2070 
0:1:12:689, 2042 
0:1:12:704, 2036 
0:1:12:720, 2039 
0:1:12:736, 2036 
0:1:12:752, 2027 
0:1:12:768, 2005 
0:1:12:784, 1951 
0:1:12:800, 1907 
0:1:12:816, 1855 
0:1:12:831, 1791 
0:1:12:847, 1707 
0:1:12:862, 1632 
0:1:12:877, 1564 
0:1:12:892, 1495 
0:1:12:908, 1455 
0:1:12:924, 1432 
0:1:12:940, 1400 
0:1:12:956, 1368 
0:1:12:972, 1331 
0:1:12:988, 1297 
0:1:13:4, 1244 
0:1:13:20, 1205 
0:1:13:35, 1164 
0:1:13:50, 1136 
0:1:13:66, 1126 
0:1:13:82, 1117 
0:1:13:97, 1115 
0:1:13:112, 1114 
0:1:13:128, 1126 
0:1:13:143, 1144 
0:1:13:158, 1173 
0:1:13:174, 1259 
0:1:13:190, 1395 
0:1:13:206, 1671 
0:1:13:222, 1936 
0:1:13:237, 2255 
0:1:13:252, 2498 
0:1:13:268, 2622 
0:1:13:284, 2707 
0:1:13:299, 2730 
0:1:13:315, 2702 
0:1:13:331, 2660 
0:1:13:346, 2553 
0:1:13:362, 2447 
0:1:13:378, 2342 
0:1:13:394, 2224 
0:1:13:410, 2135 
0:1:13:426, 2049 
0:1:13:442, 2017 
0:1:13:458, 1966 
0:1:13:474, 1927 
0:1:13:490, 1914 
0:1:13:505, 1914 
0:1:13:520, 1929 
0:1:13:535, 1947 
0:1:13:551, 1975 
0:1:13:566, 1992 
0:1:13:581, 1997 
0:1:13:597, 2008 
0:1:13:613, 1996 
0:1:13:629, 1968 
0:1:13:645, 1936 
0:1:13:661, 1893 
0:1:13:677, 1839 
0:1:13:693, 1785 
0:1:13:709, 1723 
0:1:13:725, 1662 
0:1:13:740, 1625 
0:1:13:756, 1584 
0:1:13:772, 1562 
0:1:13:788, 1528 
0:1:13:803, 1503 
0:1:13:818, 1473 
0:1:13:834, 1437 
0:1:13:850, 1424 
0:1:13:866, 1398 
0:1:13:882, 1394 
0:1:13:898, 1424 
0:1:13:913, 1483 
0:1:13:928, 1626 
0:1:13:944, 1772 
0:1:13:960, 1942 
0:1:13:976, 2186 
0:1:13:991, 2411 
0:1:14:6, 2564 
0:1:14:22, 2675 
0:1:14:37, 2771 
0:1:14:53, 2783 
0:1:14:69, 2735 
0:1:14:85, 2666 
0:1:14:101, 2593 
0:1:14:116, 2513 
0:1:14:132, 2429 
0:1:14:148, 2347 
0:1:14:163, 2271 
0:1:14:178, 2218 
0:1:14:194, 2142 
0:1:14:209, 2081 
0:1:14:224, 2044 
0:1:14:239, 2033 
0:1:14:255, 2026 
0:1:14:270, 2030 
0:1:14:285, 2044 
0:1:14:301, 2041 
0:1:14:317, 2027 
0:1:14:333, 1995 
0:1:14:349, 1956 
0:1:14:365, 1937 
0:1:14:381, 1905 
0:1:14:396, 1862 
0:1:14:412, 1805 
0:1:14:427, 1760 
0:1:14:443, 1737 
0:1:14:459, 1699 
0:1:14:475, 1675 
0:1:14:491, 1658 
0:1:14:506, 1625 
0:1:14:521, 1588 
0:1:14:537, 1544 
0:1:14:552, 1523 
0:1:14:568, 1512 
0:1:14:583, 1502 
0:1:14:599, 1492 
0:1:14:615, 1481 
0:1:14:630, 1486 
0:1:14:646, 1566 
0:1:14:661, 1757 
0:1:14:677, 1922 
0:1:14:692, 2166 
0:1:14:708, 2396 
0:1:14:724, 2633 
0:1:14:740, 2715 
0:1:14:755, 2739 
0:1:14:770, 2729 
0:1:14:786, 2667 
0:1:14:802, 2583 
0:1:14:817, 2457 
0:1:14:832, 2379 
0:1:14:848, 2261 
0:1:14:864, 2180 
0:1:14:879, 2109 
0:1:14:895, 2038 
0:1:14:911, 1967 
0:1:14:927, 1941 
0:1:14:943, 1926 
0:1:14:959, 1914 
0:1:14:974, 1907 
0:1:14:989, 1895 
0:1:15:4, 1876 
0:1:15:15, 1865 
0:1:15:34, 1837 
0:1:15:50, 1803 
0:1:15:66, 1768 
0:1:15:82, 1730 
0:1:15:98, 1687 
0:1:15:113, 1624 
0:1:15:129, 1583 
0:1:15:145, 1570 
0:1:15:161, 1539 
0:1:15:176, 1523 
0:1:15:191, 1522 
0:1:15:206, 1529 
0:1:15:221, 1546 
0:1:15:236, 1573 
0:1:15:252, 1596 
0:1:15:268, 1633 
0:1:15:284, 1666 
0:1:15:299, 1693 
0:1:15:315, 1720 
0:1:15:331, 1762 
0:1:15:347, 1890 
0:1:15:363, 2039 
0:1:15:379, 2174 
0:1:15:395, 2360 
0:1:15:410, 2514 
0:1:15:425, 2645 
0:1:15:440, 2694 
0:1:15:455, 2695 
0:1:15:470, 2671 
0:1:15:486, 2601 
0:1:15:502, 2507 
0:1:15:518, 2431 
0:1:15:534, 2304 
0:1:15:549, 2224 
0:1:15:566, 2148 
0:1:15:582, 2102 
0:1:15:598, 2046 
0:1:15:614, 2002 
0:1:15:629, 1979 
0:1:15:645, 1971 
0:1:15:661, 1976 
0:1:15:676, 1983 
0:1:15:691, 1990 
0:1:15:707, 2003 
0:1:15:723, 2007 
0:1:15:739, 1991 
0:1:15:755, 1974 
0:1:15:770, 1932 
0:1:15:785, 1902 
0:1:15:800, 1877 
0:1:15:815, 1840 
0:1:15:830, 1801 
0:1:15:846, 1765 
0:1:15:862, 1723 
0:1:15:878, 1683 
0:1:15:894, 1654 
0:1:15:909, 1637 
0:1:15:924, 1627 
0:1:15:940, 1622 
0:1:15:956, 1610 
0:1:15:972, 1611 
0:1:15:988, 1609 
0:1:16:4, 1595 
0:1:16:20, 1595 
0:1:16:35, 1608 
0:1:16:51, 1672 
0:1:16:67, 1818 
0:1:16:83, 2073 
0:1:16:99, 2312 
0:1:16:115, 2523 
0:1:16:130, 2701 
0:1:16:145, 2776 
0:1:16:160, 2791 
0:1:16:175, 2776 
0:1:16:191, 2733 
0:1:16:207, 2627 
0:1:16:223, 2564 
0:1:16:239, 2485 
0:1:16:255, 2416 
0:1:16:271, 2353 
0:1:16:287, 2291 
0:1:16:303, 2233 
0:1:16:319, 2187 
0:1:16:334, 2161 
0:1:16:350, 2148 
0:1:16:365, 2142 
0:1:16:380, 2154 
0:1:16:396, 2165 
0:1:16:411, 2169 
0:1:16:427, 2170 
0:1:16:443, 2155 
0:1:16:459, 2123 
0:1:16:475, 2096 
0:1:16:491, 2073 
0:1:16:506, 2038 
0:1:16:522, 2001 
0:1:16:538, 1939 
0:1:16:554, 1871 
0:1:16:570, 1792 
0:1:16:586, 1756 
0:1:16:602, 1723 
0:1:16:617, 1710 
0:1:16:632, 1702 
0:1:16:648, 1711 
0:1:16:664, 1715 
0:1:16:680, 1695 
0:1:16:696, 1666 
0:1:16:711, 1630 
0:1:16:728, 1625 
0:1:16:744, 1680 
0:1:16:760, 1858 
0:1:16:776, 2075 
0:1:16:792, 2318 
0:1:16:808, 2495 
0:1:16:824, 2700 
0:1:16:840, 2826 
0:1:16:855, 2874 
0:1:16:870, 2866 
0:1:16:886, 2807 
0:1:16:901, 2721 
0:1:16:917, 2635 
0:1:16:933, 2547 
0:1:16:949, 2426 
0:1:16:965, 2343 
0:1:16:981, 2273 
0:1:16:997, 2232 
0:1:17:13, 2195 
0:1:17:28, 2167 
0:1:17:43, 2136 
0:1:17:58, 2132 
0:1:17:74, 2132 
0:1:17:89, 2133 
0:1:17:104, 2131 
0:1:17:119, 2113 
0:1:17:135, 2103 
0:1:17:151, 2083 
0:1:17:167, 2051 
0:1:17:183, 2011 
0:1:17:199, 1966 
0:1:17:215, 1917 
0:1:17:230, 1869 
0:1:17:246, 1824 
0:1:17:261, 1805 
0:1:17:277, 1786 
0:1:17:292, 1768 
0:1:17:308, 1743 
0:1:17:323, 1706 
0:1:17:339, 1653 
0:1:17:355, 1608 
0:1:17:371, 1564 
0:1:17:387, 1529 
0:1:17:403, 1498 
0:1:17:419, 1488 
0:1:17:434, 1510 
0:1:17:450, 1594 
0:1:17:466, 1594 
0:1:17:482, 1809 
0:1:17:498, 2044 
0:1:17:514, 2292 
0:1:17:530, 2509 
0:1:17:546, 2694 
0:1:17:561, 2777 
0:1:17:576, 2783 
0:1:17:592, 2739 
0:1:17:608, 2672 
0:1:17:624, 2612 
0:1:17:639, 2555 
0:1:17:655, 2463 
0:1:17:670, 2402 
0:1:17:686, 2292 
0:1:17:702, 2202 
0:1:17:718, 2112 
0:1:17:733, 2073 
0:1:17:749, 2050 
0:1:17:765, 2060 
0:1:17:781, 2075 
0:1:17:796, 2071 
0:1:17:811, 2052 
0:1:17:826, 2030 
0:1:17:841, 1993 
0:1:17:857, 1962 
0:1:17:873, 1911 
0:1:17:889, 1865 
0:1:17:905, 1826 
0:1:17:921, 1761 
0:1:17:936, 1715 
0:1:17:952, 1664 
0:1:17:968, 1622 
0:1:17:984, 1598 
0:1:18:0, 1585 
0:1:18:16, 1584 
0:1:18:32, 1591 
0:1:18:47, 1595 
0:1:18:63, 1601 
0:1:18:79, 1606 
0:1:18:95, 1594 
0:1:18:111, 1578 
0:1:18:127, 1566 
0:1:18:143, 1598 
0:1:18:159, 1683 
0:1:18:174, 1834 
0:1:18:189, 1979 
0:1:18:205, 2028 
0:1:18:221, 2170 
0:1:18:237, 2310 
0:1:18:253, 2497 
0:1:18:268, 2544 
0:1:18:283, 2530 
0:1:18:298, 2494 
0:1:18:313, 2439 
0:1:18:329, 2356 
0:1:18:344, 2257 
0:1:18:360, 2147 
0:1:18:376, 2036 
0:1:18:392, 1969 
0:1:18:408, 1938 
0:1:18:424, 1958 
0:1:18:439, 1978 
0:1:18:454, 2012 
0:1:18:470, 2046 
0:1:18:486, 2069 
0:1:18:501, 2071 
0:1:18:516, 2044 
0:1:18:532, 1999 
0:1:18:548, 1941 
0:1:18:563, 1896 
0:1:18:578, 1830 
0:1:18:594, 1759 
0:1:18:609, 1684 
0:1:18:624, 1626 
0:1:18:639, 1581 
0:1:18:655, 1552 
0:1:18:670, 1540 
0:1:18:686, 1548 
0:1:18:702, 1568 
0:1:18:718, 1599 
0:1:18:734, 1624 
0:1:18:749, 1645 
0:1:18:764, 1650 
0:1:18:780, 1642 
0:1:18:795, 1616 
0:1:18:811, 1588 
0:1:18:827, 1575 
0:1:18:842, 1597 
0:1:18:858, 1678 
0:1:18:874, 1825 
0:1:18:890, 2016 
0:1:18:906, 2231 
0:1:18:922, 2400 
0:1:18:938, 2526 
0:1:18:954, 2552 
0:1:18:969, 2525 
0:1:18:984, 2486 
0:1:18:999, 2427 
0:1:19:15, 2334 
0:1:19:30, 2237 
0:1:19:46, 2143 
0:1:19:62, 2059 
0:1:19:78, 1984 
0:1:19:94, 1917 
0:1:19:109, 1882 
0:1:19:125, 1866 
0:1:19:141, 1876 
0:1:19:157, 1901 
0:1:19:173, 1918 
0:1:19:188, 1932 
0:1:19:203, 1933 
0:1:19:218, 1921 
0:1:19:234, 1903 
0:1:19:250, 1874 
0:1:19:266, 1855 
0:1:19:282, 1824 
0:1:19:298, 1783 
0:1:19:313, 1749 
0:1:19:328, 1717 
0:1:19:343, 1679 
0:1:19:359, 1650 
0:1:19:375, 1631 
0:1:19:390, 1617 
0:1:19:405, 1609 
0:1:19:421, 1586 
0:1:19:437, 1571 
0:1:19:452, 1557 
0:1:19:467, 1550 
0:1:19:483, 1552 
0:1:19:499, 1568 
0:1:19:515, 1621 
0:1:19:530, 1733 
0:1:19:546, 1961 
0:1:19:562, 2192 
0:1:19:578, 2428 
0:1:19:594, 2666 
0:1:19:610, 2798 
0:1:19:625, 2837 
0:1:19:641, 2821 
0:1:19:657, 2761 
0:1:19:672, 2692 
0:1:19:687, 2603 
0:1:19:703, 2497 
0:1:19:719, 2389 
0:1:19:734, 2291 
0:1:19:750, 2188 
0:1:19:766, 2128 
0:1:19:782, 2083 
0:1:19:798, 2059 
0:1:19:814, 2048 
0:1:19:830, 2046 
0:1:19:846, 2058 
0:1:19:862, 2066 
0:1:19:877, 2069 
0:1:19:893, 2065 
0:1:19:908, 2051 
0:1:19:923, 2026 
0:1:19:939, 2004 
0:1:19:954, 1973 
0:1:19:969, 1931 
0:1:19:985, 1898 
0:1:20:0, 1868 
0:1:20:15, 1820 
0:1:20:31, 1763 
0:1:20:47, 1709 
0:1:20:63, 1660 
0:1:20:79, 1638 
0:1:20:95, 1612 
0:1:20:110, 1603 
0:1:20:125, 1598 
0:1:20:140, 1586 
0:1:20:155, 1577 
0:1:20:171, 1620 
0:1:20:187, 1693 
0:1:20:202, 1921 
0:1:20:218, 2171 
0:1:20:234, 2436 
0:1:20:249, 2669 
0:1:20:264, 2883 
0:1:20:279, 3006 
0:1:20:295, 3033 
0:1:20:310, 2999 
0:1:20:326, 2972 
0:1:20:342, 2899 
0:1:20:357, 2825 
0:1:20:372, 2695 
0:1:20:387, 2588 
0:1:20:402, 2485 
0:1:20:418, 2397 
0:1:20:434, 2291 
0:1:20:450, 2229 
0:1:20:466, 2183 
0:1:20:482, 2145 
0:1:20:498, 2120 
0:1:20:514, 2104 
0:1:20:530, 2100 
0:1:20:546, 2097 
0:1:20:562, 2075 
0:1:20:577, 2048 
0:1:20:593, 2035 
0:1:20:608, 1998 
0:1:20:623, 1944 
0:1:20:639, 1900 
0:1:20:655, 1849 
0:1:20:670, 1807 
0:1:20:685, 1758 
0:1:20:701, 1717 
0:1:20:717, 1696 
0:1:20:732, 1661 
0:1:20:748, 1615 
0:1:20:764, 1593 
0:1:20:780, 1563 
0:1:20:795, 1547 
0:1:20:811, 1535 
0:1:20:827, 1539 
0:1:20:842, 1614 
0:1:20:857, 1712 
0:1:20:873, 1971 
0:1:20:889, 2242 
0:1:20:904, 2502 
0:1:20:920, 2776 
0:1:20:936, 2915 
0:1:20:952, 2993 
0:1:20:968, 3020 
0:1:20:984, 2993 
0:1:21:0, 2951 
0:1:21:15, 2901 
0:1:21:30, 2822 
0:1:21:45, 2734 
0:1:21:61, 2635 
0:1:21:76, 2528 
0:1:21:91, 2417 
0:1:21:107, 2308 
0:1:21:123, 2263 
0:1:21:139, 2208 
0:1:21:155, 2159 
0:1:21:171, 2142 
0:1:21:187, 2144 
0:1:21:203, 2145 
0:1:21:219, 2130 
0:1:21:234, 2090 
0:1:21:249, 2043 
0:1:21:265, 1978 
0:1:21:281, 1934 
0:1:21:296, 1902 
0:1:21:311, 1867 
0:1:21:326, 1832 
0:1:21:342, 1789 
0:1:21:358, 1742 
0:1:21:374, 1692 
0:1:21:390, 1658 
0:1:21:406, 1628 
0:1:21:422, 1596 
0:1:21:437, 1578 
0:1:21:453, 1545 
0:1:21:469, 1528 
0:1:21:485, 1537 
0:1:21:501, 1626 
0:1:21:517, 1785 
0:1:21:533, 2026 
0:1:21:548, 2229 
0:1:21:563, 2485 
0:1:21:578, 2650 
0:1:21:593, 2832 
0:1:21:608, 2915 
0:1:21:623, 2947 
0:1:21:639, 2943 
0:1:21:655, 2916 
0:1:21:670, 2866 
0:1:21:686, 2769 
0:1:21:702, 2675 
0:1:21:718, 2549 
0:1:21:733, 2431 
0:1:21:749, 2301 
0:1:21:764, 2234 
0:1:21:779, 2170 
0:1:21:794, 2138 
0:1:21:810, 2108 
0:1:21:826, 2097 
0:1:21:842, 2080 
0:1:21:858, 2049 
0:1:21:874, 2025 
0:1:21:889, 2000 
0:1:21:905, 1972 
0:1:21:921, 1940 
0:1:21:936, 1902 
0:1:21:952, 1828 
0:1:21:968, 1773 
0:1:21:983, 1709 
0:1:21:999, 1655 
0:1:22:14, 1597 
0:1:22:29, 1557 
0:1:22:45, 1525 
0:1:22:61, 1487 
0:1:22:76, 1455 
0:1:22:91, 1427 
0:1:22:106, 1404 
0:1:22:121, 1391 
0:1:22:136, 1378 
0:1:22:152, 1374 
0:1:22:168, 1361 
0:1:22:184, 1350 
0:1:22:200, 1370 
0:1:22:216, 1442 
0:1:22:233, 1628 
0:1:22:248, 1851 
0:1:22:263, 2097 
0:1:22:279, 2376 
0:1:22:295, 2568 
0:1:22:311, 2673 
0:1:22:327, 2701 
0:1:22:342, 2685 
0:1:22:358, 2647 
0:1:22:374, 2587 
0:1:22:390, 2536 
0:1:22:405, 2469 
0:1:22:420, 2370 
0:1:22:436, 2278 
0:1:22:452, 2180 
0:1:22:468, 2096 
0:1:22:483, 2021 
0:1:22:498, 1945 
0:1:22:513, 1920 
0:1:22:529, 1882 
0:1:22:544, 1866 
0:1:22:560, 1862 
0:1:22:576, 1863 
0:1:22:591, 1870 
0:1:22:606, 1866 
0:1:22:622, 1847 
0:1:22:638, 1816 
0:1:22:654, 1768 
0:1:22:670, 1716 
0:1:22:686, 1667 
0:1:22:701, 1640 
0:1:22:716, 1610 
0:1:22:731, 1578 
0:1:22:746, 1549 
0:1:22:762, 1521 
0:1:22:777, 1507 
0:1:22:793, 1507 
0:1:22:809, 1518 
0:1:22:825, 1546 
0:1:22:841, 1558 
0:1:22:856, 1561 
0:1:22:871, 1551 
0:1:22:887, 1539 
0:1:22:903, 1527 
0:1:22:919, 1510 
0:1:22:934, 1506 
0:1:22:949, 1514 
0:1:22:964, 1573 
0:1:22:980, 1761 
0:1:22:996, 1985 
0:1:23:12, 2182 
0:1:23:27, 2381 
0:1:23:43, 2613 
0:1:23:59, 2855 
0:1:23:75, 2948 
0:1:23:91, 2977 
0:1:23:107, 2967 
0:1:23:122, 2927 
0:1:23:138, 2860 
0:1:23:154, 2762 
0:1:23:169, 2698 
0:1:23:184, 2608 
0:1:23:199, 2534 
0:1:23:215, 2454 
0:1:23:231, 2354 
0:1:23:247, 2259 
0:1:23:263, 2201 
0:1:23:278, 2173 
0:1:23:294, 2164 
0:1:23:310, 2150 
0:1:23:325, 2147 
0:1:23:341, 2130 
0:1:23:357, 2106 
0:1:23:373, 2072 
0:1:23:388, 2026 
0:1:23:403, 1984 
0:1:23:418, 1961 
0:1:23:434, 1911 
0:1:23:449, 1856 
0:1:23:465, 1809 
0:1:23:481, 1773 
0:1:23:497, 1724 
0:1:23:513, 1684 
0:1:23:528, 1654 
0:1:23:544, 1616 
0:1:23:559, 1571 
0:1:23:574, 1540 
0:1:23:590, 1480 
0:1:23:605, 1450 
0:1:23:620, 1414 
0:1:23:635, 1402 
0:1:23:650, 1394 
0:1:23:665, 1390 
0:1:23:680, 1404 
0:1:23:696, 1432 
0:1:23:712, 1455 
0:1:23:727, 1483 
0:1:23:742, 1500 
0:1:23:758, 1535 
0:1:23:774, 1619 
0:1:23:790, 1828 
0:1:23:806, 2046 
0:1:23:822, 2301 
0:1:23:838, 2427 
0:1:23:854, 2535 
0:1:23:870, 2594 
0:1:23:885, 2603 
0:1:23:900, 2573 
0:1:23:915, 2521 
0:1:23:930, 2463 
0:1:23:945, 2403 
0:1:23:961, 2356 
0:1:23:977, 2295 
0:1:23:993, 2227 
0:1:24:9, 2132 
0:1:24:25, 2067 
0:1:24:40, 1992 
0:1:24:56, 1949 
0:1:24:72, 1929 
0:1:24:88, 1922 
0:1:24:103, 1930 
0:1:24:118, 1923 
0:1:24:134, 1912 
0:1:24:150, 1892 
0:1:24:166, 1866 
0:1:24:182, 1848 
0:1:24:198, 1831 
0:1:24:214, 1807 
0:1:24:229, 1785 
0:1:24:244, 1752 
0:1:24:260, 1692 
0:1:24:276, 1624 
0:1:24:291, 1576 
0:1:24:307, 1523 
0:1:24:323, 1506 
0:1:24:338, 1498 
0:1:24:353, 1496 
0:1:24:368, 1492 
0:1:24:384, 1475 
0:1:24:400, 1464 
0:1:24:416, 1446 
0:1:24:433, 1411 
0:1:24:449, 1403 
0:1:24:465, 1400 
0:1:24:481, 1411 
0:1:24:497, 1411 
0:1:24:513, 1395 
0:1:24:529, 1380 
0:1:24:545, 1367 
0:1:24:561, 1366 
0:1:24:577, 1390 
0:1:24:592, 1451 
0:1:24:607, 1586 
0:1:24:623, 1728 
0:1:24:638, 1943 
0:1:24:654, 2162 
0:1:24:670, 2300 
0:1:24:686, 2447 
0:1:24:701, 2512 
0:1:24:717, 2523 
0:1:24:733, 2501 
0:1:24:748, 2462 
0:1:24:764, 2396 
0:1:24:780, 2327 
0:1:24:796, 2232 
0:1:24:812, 2141 
0:1:24:827, 2065 
0:1:24:843, 2016 
0:1:24:859, 1980 
0:1:24:874, 1963 
0:1:24:890, 1956 
0:1:24:905, 1944 
0:1:24:921, 1924 
0:1:24:937, 1921 
0:1:24:953, 1917 
0:1:24:969, 1918 
0:1:24:985, 1905 
0:1:25:1, 1875 
0:1:25:17, 1848 
0:1:25:33, 1810 
0:1:25:49, 1760 
0:1:25:64, 1735 
0:1:25:79, 1697 
0:1:25:95, 1663 
0:1:25:111, 1627 
0:1:25:127, 1593 
0:1:25:143, 1568 
0:1:25:158, 1542 
0:1:25:174, 1511 
0:1:25:190, 1492 
0:1:25:206, 1470 
0:1:25:222, 1480 
0:1:25:237, 1483 
0:1:25:253, 1487 
0:1:25:269, 1489 
0:1:25:285, 1464 
0:1:25:300, 1442 
0:1:25:315, 1433 
0:1:25:331, 1426 
0:1:25:347, 1385 
0:1:25:363, 1354 
0:1:25:379, 1341 
0:1:25:395, 1333 
0:1:25:411, 1344 
0:1:25:427, 1404 
0:1:25:443, 1523 
0:1:25:459, 1741 
0:1:25:475, 1947 
0:1:25:491, 2180 
0:1:25:506, 2338 
0:1:25:522, 2394 
0:1:25:537, 2413 
0:1:25:552, 2387 
0:1:25:568, 2347 
0:1:25:584, 2270 
0:1:25:599, 2198 
0:1:25:615, 2093 
0:1:25:630, 2010 
0:1:25:646, 1958 
0:1:25:662, 1870 
0:1:25:678, 1822 
0:1:25:694, 1805 
0:1:25:710, 1800 
0:1:25:726, 1806 
0:1:25:741, 1822 
0:1:25:757, 1833 
0:1:25:772, 1845 
0:1:25:787, 1838 
0:1:25:803, 1821 
0:1:25:818, 1802 
0:1:25:835, 1764 
0:1:25:851, 1718 
0:1:25:867, 1659 
0:1:25:883, 1623 
0:1:25:899, 1589 
0:1:25:915, 1541 
0:1:25:930, 1517 
0:1:25:945, 1490 
0:1:25:961, 1447 
0:1:25:977, 1414 
0:1:25:992, 1391 
0:1:26:7, 1386 
0:1:26:22, 1389 
0:1:26:38, 1384 
0:1:26:54, 1379 
0:1:26:70, 1387 
0:1:26:86, 1391 
0:1:26:102, 1399 
0:1:26:118, 1390 
0:1:26:134, 1371 
0:1:26:150, 1358 
0:1:26:166, 1338 
0:1:26:182, 1326 
0:1:26:197, 1322 
0:1:26:213, 1371 
0:1:26:229, 1494 
0:1:26:244, 1677 
0:1:26:259, 1949 
0:1:26:275, 2099 
0:1:26:291, 2258 
0:1:26:307, 2391 
0:1:26:323, 2408 
0:1:26:339, 2398 
0:1:26:355, 2354 
0:1:26:371, 2303 
0:1:26:387, 2226 
0:1:26:403, 2158 
0:1:26:419, 2092 
0:1:26:435, 2026 
0:1:26:450, 1960 
0:1:26:466, 1895 
0:1:26:481, 1846 
0:1:26:496, 1821 
0:1:26:512, 1819 
0:1:26:528, 1827 
0:1:26:543, 1838 
0:1:26:559, 1847 
0:1:26:574, 1871 
0:1:26:589, 1891 
0:1:26:605, 1905 
0:1:26:621, 1902 
0:1:26:637, 1876 
0:1:26:653, 1852 
0:1:26:669, 1807 
0:1:26:685, 1774 
0:1:26:701, 1746 
0:1:26:716, 1712 
0:1:26:731, 1675 
0:1:26:746, 1641 
0:1:26:762, 1630 
0:1:26:778, 1600 
0:1:26:794, 1569 
0:1:26:809, 1547 
0:1:26:824, 1521 
0:1:26:840, 1505 
0:1:26:856, 1492 
0:1:26:872, 1488 
0:1:26:888, 1495 
0:1:26:904, 1500 
0:1:26:920, 1499 
0:1:26:935, 1491 
0:1:26:950, 1480 
0:1:26:965, 1517 
0:1:26:981, 1582 
0:1:26:997, 1737 
0:1:27:12, 1957 
0:1:27:28, 2128 
0:1:27:43, 2332 
0:1:27:59, 2537 
0:1:27:75, 2596 
0:1:27:91, 2606 
0:1:27:107, 2543 
0:1:27:123, 2475 
0:1:27:138, 2408 
0:1:27:154, 2308 
0:1:27:170, 2233 
0:1:27:185, 2175 
0:1:27:200, 2104 
0:1:27:215, 2049 
0:1:27:231, 1971 
0:1:27:247, 1941 
0:1:27:263, 1931 
0:1:27:279, 1940 
0:1:27:295, 1987 
0:1:27:311, 2027 
0:1:27:327, 2069 
0:1:27:343, 2072 
0:1:27:359, 2054 
0:1:27:375, 2042 
0:1:27:391, 2019 
0:1:27:407, 1985 
0:1:27:422, 1949 
0:1:27:437, 1911 
0:1:27:453, 1873 
0:1:27:469, 1832 
0:1:27:485, 1787 
0:1:27:501, 1762 
0:1:27:517, 1745 
0:1:27:533, 1721 
0:1:27:548, 1703 
0:1:27:564, 1682 
0:1:27:580, 1674 
0:1:27:595, 1662 
0:1:27:611, 1644 
0:1:27:627, 1635 
0:1:27:643, 1627 
0:1:27:658, 1643 
0:1:27:673, 1706 
0:1:27:689, 1866 
0:1:27:705, 2064 
0:1:27:721, 2275 
0:1:27:736, 2530 
0:1:27:752, 2611 
0:1:27:768, 2754 
0:1:27:784, 2820 
0:1:27:800, 2830 
0:1:27:816, 2800 
0:1:27:832, 2744 
0:1:27:847, 2639 
0:1:27:863, 2570 
0:1:27:879, 2499 
0:1:27:894, 2418 
0:1:27:909, 2338 
0:1:27:925, 2232 
0:1:27:941, 2159 
0:1:27:957, 2113 
0:1:27:973, 2093 
0:1:27:989, 2095 
0:1:28:5, 2102 
0:1:28:21, 2119 
0:1:28:36, 2130 
0:1:28:52, 2141 
0:1:28:67, 2142 
0:1:28:83, 2130 
0:1:28:99, 2108 
0:1:28:115, 2078 
0:1:28:130, 2044 
0:1:28:146, 2021 
0:1:28:162, 1986 
0:1:28:178, 1954 
0:1:28:193, 1928 
0:1:28:208, 1901 
0:1:28:224, 1867 
0:1:28:240, 1832 
0:1:28:255, 1802 
0:1:28:271, 1774 
0:1:28:287, 1753 
0:1:28:303, 1732 
0:1:28:319, 1732 
0:1:28:335, 1727 
0:1:28:351, 1707 
0:1:28:366, 1724 
0:1:28:381, 1773 
0:1:28:397, 1915 
0:1:28:412, 2076 
0:1:28:428, 2321 
0:1:28:444, 2578 
0:1:28:460, 2850 
0:1:28:476, 3018 
0:1:28:492, 3099 
0:1:28:508, 3098 
0:1:28:524, 3062 
0:1:28:539, 3006 
0:1:28:554, 2939 
0:1:28:569, 2896 
0:1:28:585, 2862 
0:1:28:600, 2791 
0:1:28:615, 2732 
0:1:28:630, 2639 
0:1:28:646, 2566 
0:1:28:662, 2463 
0:1:28:678, 2404 
0:1:28:694, 2348 
0:1:28:710, 2328 
0:1:28:726, 2319 
0:1:28:741, 2310 
0:1:28:757, 2296 
0:1:28:773, 2279 
0:1:28:789, 2258 
0:1:28:805, 2208 
0:1:28:821, 2171 
0:1:28:837, 2127 
0:1:28:852, 2077 
0:1:28:868, 2018 
0:1:28:884, 1973 
0:1:28:900, 1931 
0:1:28:916, 1892 
0:1:28:932, 1832 
0:1:28:947, 1798 
0:1:28:963, 1765 
0:1:28:979, 1735 
0:1:28:995, 1710 
0:1:29:10, 1686 
0:1:29:26, 1676 
0:1:29:42, 1666 
0:1:29:58, 1664 
0:1:29:73, 1699 
0:1:29:88, 1778 
0:1:29:103, 1936 
0:1:29:119, 2040 
0:1:29:134, 2285 
0:1:29:150, 2604 
0:1:29:166, 2819 
0:1:29:182, 3004 
0:1:29:198, 3134 
0:1:29:214, 3170 
0:1:29:230, 3161 
0:1:29:246, 3131 
0:1:29:262, 3067 
0:1:29:278, 2991 
0:1:29:294, 2913 
0:1:29:309, 2818 
0:1:29:324, 2730 
0:1:29:339, 2605 
0:1:29:355, 2461 
0:1:29:371, 2356 
0:1:29:387, 2279 
0:1:29:403, 2232 
0:1:29:419, 2195 
0:1:29:434, 2175 
0:1:29:449, 2164 
0:1:29:465, 2154 
0:1:29:481, 2143 
0:1:29:497, 2102 
0:1:29:513, 2068 
0:1:29:529, 2013 
0:1:29:544, 1954 
0:1:29:559, 1915 
0:1:29:574, 1859 
0:1:29:590, 1818 
0:1:29:606, 1759 
0:1:29:622, 1708 
0:1:29:638, 1678 
0:1:29:653, 1646 
0:1:29:669, 1612 
0:1:29:685, 1601 
0:1:29:701, 1593 
0:1:29:716, 1590 
0:1:29:732, 1590 
0:1:29:748, 1585 
0:1:29:764, 1576 
0:1:29:779, 1560 
0:1:29:794, 1536 
0:1:29:809, 1523 
0:1:29:825, 1573 
0:1:29:841, 1616 
0:1:29:856, 1699 
0:1:29:872, 1863 
0:1:29:887, 2098 
0:1:29:903, 2422 
0:1:29:919, 2669 
0:1:29:935, 2924 
0:1:29:950, 3024 
0:1:29:966, 3064 
0:1:29:981, 3043 
0:1:29:996, 2986 
0:1:30:11, 2907 
0:1:30:26, 2838 
0:1:30:41, 2764 
0:1:30:57, 2688 
0:1:30:73, 2594 
0:1:30:88, 2501 
0:1:30:103, 2396 
0:1:30:119, 2292 
0:1:30:135, 2218 
0:1:30:150, 2145 
0:1:30:166, 2119 
0:1:30:182, 2115 
0:1:30:198, 2107 
0:1:30:214, 2103 
0:1:30:230, 2067 
0:1:30:245, 2021 
0:1:30:260, 1984 
0:1:30:275, 1942 
0:1:30:290, 1902 
0:1:30:306, 1853 
0:1:30:322, 1823 
0:1:30:337, 1778 
0:1:30:353, 1750 
0:1:30:369, 1713 
0:1:30:385, 1692 
0:1:30:401, 1667 
0:1:30:416, 1636 
0:1:30:431, 1611 
0:1:30:446, 1580 
0:1:30:462, 1549 
0:1:30:477, 1533 
0:1:30:492, 1520 
0:1:30:508, 1502 
0:1:30:524, 1495 
0:1:30:539, 1490 
0:1:30:555, 1485 
0:1:30:571, 1487 
0:1:30:587, 1486 
0:1:30:603, 1490 
0:1:30:619, 1527 
0:1:30:635, 1623 
0:1:30:651, 1793 
0:1:30:667, 2083 
0:1:30:682, 2275 
0:1:30:697, 2516 
0:1:30:712, 2732 
0:1:30:727, 2861 
0:1:30:742, 2912 
0:1:30:758, 2876 
0:1:30:774, 2828 
0:1:30:789, 2736 
0:1:30:805, 2644 
0:1:30:821, 2554 
0:1:30:837, 2454 
0:1:30:852, 2352 
0:1:30:867, 2307 
0:1:30:883, 2217 
0:1:30:898, 2152 
0:1:30:914, 2078 
0:1:30:929, 2031 
0:1:30:945, 1990 
0:1:30:960, 1984 
0:1:30:975, 1986 
0:1:30:991, 1982 
0:1:31:7, 1973 
0:1:31:23, 1955 
0:1:31:38, 1931 
0:1:31:54, 1889 
0:1:31:70, 1851 
0:1:31:86, 1804 
0:1:31:102, 1772 
0:1:31:118, 1724 
0:1:31:134, 1675 
0:1:31:149, 1620 
0:1:31:164, 1567 
0:1:31:179, 1535 
0:1:31:194, 1503 
0:1:31:209, 1475 
0:1:31:225, 1444 
0:1:31:241, 1425 
0:1:31:257, 1414 
0:1:31:273, 1401 
0:1:31:289, 1399 
0:1:31:305, 1395 
0:1:31:321, 1393 
0:1:31:337, 1398 
0:1:31:352, 1399 
0:1:31:367, 1397 
0:1:31:382, 1393 
0:1:31:397, 1414 
0:1:31:412, 1488 
0:1:31:427, 1586 
0:1:31:442, 1779 
0:1:31:458, 2098 
0:1:31:474, 2296 
0:1:31:490, 2536 
0:1:31:506, 2751 
0:1:31:522, 2826 
0:1:31:538, 2873 
0:1:31:553, 2840 
0:1:31:568, 2794 
0:1:31:584, 2714 
0:1:31:600, 2602 
0:1:31:616, 2488 
0:1:31:632, 2380 
0:1:31:648, 2288 
0:1:31:663, 2203 
0:1:31:679, 2117 
0:1:31:695, 2081 
0:1:31:711, 2045 
0:1:31:726, 2026 
0:1:31:741, 2021 
0:1:31:757, 2007 
0:1:31:773, 1996 
0:1:31:789, 1970 
0:1:31:805, 1950 
0:1:31:821, 1919 
0:1:31:837, 1882 
0:1:31:852, 1844 
0:1:31:868, 1783 
0:1:31:883, 1741 
0:1:31:898, 1699 
0:1:31:913, 1648 
0:1:31:929, 1619 
0:1:31:944, 1580 
0:1:31:959, 1559 
0:1:31:975, 1535 
0:1:31:990, 1508 
0:1:32:6, 1478 
0:1:32:22, 1457 
0:1:32:38, 1434 
0:1:32:53, 1425 
0:1:32:68, 1428 
0:1:32:84, 1429 
0:1:32:100, 1426 
0:1:32:115, 1418 
0:1:32:130, 1403 
0:1:32:145, 1397 
0:1:32:161, 1423 
0:1:32:177, 1510 
0:1:32:193, 1664 
0:1:32:209, 1932 
0:1:32:225, 2123 
0:1:32:240, 2309 
0:1:32:256, 2478 
0:1:32:272, 2687 
0:1:32:288, 2786 
0:1:32:304, 2816 
0:1:32:320, 2776 
0:1:32:335, 2707 
0:1:32:351, 2656 
0:1:32:366, 2582 
0:1:32:381, 2528 
0:1:32:397, 2431 
0:1:32:412, 2346 
0:1:32:427, 2267 
0:1:32:442, 2190 
0:1:32:458, 2096 
0:1:32:474, 2044 
0:1:32:489, 1993 
0:1:32:504, 1972 
0:1:32:519, 1964 
0:1:32:535, 1948 
0:1:32:551, 1945 
0:1:32:567, 1943 
0:1:32:583, 1924 
0:1:32:598, 1907 
0:1:32:613, 1870 
0:1:32:629, 1820 
0:1:32:645, 1771 
0:1:32:661, 1722 
0:1:32:676, 1679 
0:1:32:691, 1646 
0:1:32:706, 1612 
0:1:32:721, 1585 
0:1:32:737, 1567 
0:1:32:752, 1542 
0:1:32:768, 1515 
0:1:32:784, 1494 
0:1:32:800, 1470 
0:1:32:815, 1445 
0:1:32:830, 1435 
0:1:32:845, 1434 
0:1:32:861, 1433 
0:1:32:877, 1427 
0:1:32:893, 1415 
0:1:32:909, 1413 
0:1:32:925, 1415 
0:1:32:941, 1447 
0:1:32:956, 1517 
0:1:32:971, 1647 
0:1:32:987, 1807 
0:1:33:3, 2152 
0:1:33:19, 2372 
0:1:33:35, 2699 
0:1:33:50, 2910 
0:1:33:65, 3008 
0:1:33:80, 3024 
0:1:33:96, 2985 
0:1:33:112, 2888 
0:1:33:128, 2786 
0:1:33:144, 2698 
0:1:33:160, 2582 
0:1:33:175, 2480 
0:1:33:191, 2397 
0:1:33:207, 2259 
0:1:33:223, 2167 
0:1:33:238, 2080 
0:1:33:254, 2049 
0:1:33:270, 2045 
0:1:33:285, 2055 
0:1:33:300, 2075 
0:1:33:316, 2075 
0:1:33:331, 2058 
0:1:33:346, 2029 
0:1:33:362, 1988 
0:1:33:378, 1929 
0:1:33:393, 1907 
0:1:33:408, 1863 
0:1:33:423, 1838 
0:1:33:439, 1810 
0:1:33:455, 1792 
0:1:33:470, 1774 
0:1:33:485, 1731 
0:1:33:501, 1681 
0:1:33:516, 1639 
0:1:33:531, 1589 
0:1:33:546, 1562 
0:1:33:562, 1551 
0:1:33:578, 1547 
0:1:33:594, 1554 
0:1:33:610, 1551 
0:1:33:626, 1544 
0:1:33:642, 1530 
0:1:33:658, 1514 
0:1:33:673, 1506 
0:1:33:689, 1493 
0:1:33:705, 1458 
0:1:33:721, 1436 
0:1:33:737, 1439 
0:1:33:752, 1482 
0:1:33:767, 1595 
0:1:33:782, 1791 
0:1:33:798, 2113 
0:1:33:814, 2313 
0:1:33:830, 2548 
0:1:33:846, 2758 
0:1:33:862, 2855 
0:1:33:878, 2896 
0:1:33:893, 2879 
0:1:33:909, 2825 
0:1:33:925, 2772 
0:1:33:940, 2691 
0:1:33:956, 2586 
0:1:33:972, 2494 
0:1:33:987, 2403 
0:1:34:2, 2305 
0:1:34:18, 2263 
0:1:34:33, 2183 
0:1:34:49, 2125 
0:1:34:64, 2089 
0:1:34:79, 2073 
0:1:34:95, 2077 
0:1:34:111, 2088 
0:1:34:127, 2088 
0:1:34:143, 2077 
0:1:34:159, 2047 
0:1:34:175, 2019 
0:1:34:191, 1969 
0:1:34:206, 1910 
0:1:34:221, 1858 
0:1:34:236, 1810 
0:1:34:251, 1761 
0:1:34:267, 1720 
0:1:34:283, 1666 
0:1:34:299, 1632 
0:1:34:315, 1594 
0:1:34:331, 1558 
0:1:34:346, 1534 
0:1:34:362, 1491 
0:1:34:378, 1449 
0:1:34:394, 1425 
0:1:34:410, 1412 
0:1:34:426, 1417 
0:1:34:442, 1432 
0:1:34:457, 1441 
0:1:34:472, 1439 
0:1:34:488, 1426 
0:1:34:504, 1411 
0:1:34:520, 1396 
0:1:34:536, 1386 
0:1:34:552, 1390 
0:1:34:568, 1403 
0:1:34:584, 1460 
0:1:34:600, 1590 
0:1:34:615, 1797 
0:1:34:630, 1996 
0:1:34:646, 2284 
0:1:34:661, 2541 
0:1:34:677, 2701 
0:1:34:692, 2860 
0:1:34:707, 2912 
0:1:34:723, 2888 
0:1:34:738, 2829 
0:1:34:754, 2746 
0:1:34:770, 2666 
0:1:34:786, 2591 
0:1:34:802, 2477 
0:1:34:818, 2399 
0:1:34:834, 2342 
0:1:34:850, 2230 
0:1:34:866, 2130 
0:1:34:882, 2046 
0:1:34:898, 2016 
0:1:34:914, 1993 
0:1:34:929, 1994 
0:1:34:944, 1997 
0:1:34:960, 2000 
0:1:34:976, 1987 
0:1:34:992, 1974 
0:1:35:8, 1954 
0:1:35:24, 1916 
0:1:35:39, 1884 
0:1:35:55, 1832 
0:1:35:71, 1771 
0:1:35:87, 1690 
0:1:35:103, 1650 
0:1:35:119, 1605 
0:1:35:135, 1573 
0:1:35:151, 1553 
0:1:35:166, 1532 
0:1:35:181, 1517 
0:1:35:196, 1492 
0:1:35:212, 1469 
0:1:35:228, 1446 
0:1:35:244, 1442 
0:1:35:260, 1423 
0:1:35:275, 1422 
0:1:35:290, 1431 
0:1:35:306, 1427 
0:1:35:322, 1434 
0:1:35:338, 1435 
0:1:35:354, 1426 
0:1:35:370, 1406 
0:1:35:386, 1384 
0:1:35:401, 1376 
0:1:35:416, 1382 
0:1:35:432, 1460 
0:1:35:448, 1519 
0:1:35:464, 1694 
0:1:35:480, 1939 
0:1:35:496, 2145 
0:1:35:511, 2345 
0:1:35:527, 2634 
0:1:35:543, 2810 
0:1:35:559, 2873 
0:1:35:575, 2869 
0:1:35:591, 2826 
0:1:35:607, 2753 
0:1:35:623, 2632 
0:1:35:638, 2548 
0:1:35:653, 2459 
0:1:35:668, 2322 
0:1:35:684, 2215 
0:1:35:700, 2112 
0:1:35:716, 2046 
0:1:35:732, 2004 
0:1:35:747, 1985 
0:1:35:763, 1986 
0:1:35:779, 1995 
0:1:35:795, 2004 
0:1:35:811, 2011 
0:1:35:827, 2005 
0:1:35:843, 1991 
0:1:35:858, 1980 
0:1:35:873, 1946 
0:1:35:888, 1923 
0:1:35:904, 1889 
0:1:35:920, 1829 
0:1:35:936, 1784 
0:1:35:952, 1739 
0:1:35:967, 1697 
0:1:35:983, 1667 
0:1:35:998, 1635 
0:1:36:14, 1604 
0:1:36:30, 1589 
0:1:36:46, 1561 
0:1:36:62, 1543 
0:1:36:78, 1512 
0:1:36:94, 1476 
0:1:36:109, 1456 
0:1:36:124, 1436 
0:1:36:140, 1416 
0:1:36:156, 1415 
0:1:36:172, 1419 
0:1:36:188, 1413 
0:1:36:204, 1407 
0:1:36:220, 1390 
0:1:36:236, 1377 
0:1:36:252, 1415 
0:1:36:268, 1494 
0:1:36:284, 1727 
0:1:36:300, 1992 
0:1:36:316, 2212 
0:1:36:332, 2358 
0:1:36:347, 2692 
0:1:36:362, 2770 
0:1:36:378, 2931 
0:1:36:394, 3003 
0:1:36:410, 2990 
0:1:36:426, 2908 
0:1:36:442, 2764 
0:1:36:458, 2641 
0:1:36:474, 2517 
0:1:36:489, 2405 
0:1:36:504, 2296 
0:1:36:519, 2204 
0:1:36:535, 2132 
0:1:36:551, 2086 
0:1:36:567, 2096 
0:1:36:582, 2128 
0:1:36:597, 2185 
0:1:36:613, 2256 
0:1:36:629, 2287 
0:1:36:645, 2300 
0:1:36:661, 2292 
0:1:36:677, 2253 
0:1:36:692, 2199 
0:1:36:708, 2124 
0:1:36:724, 2042 
0:1:36:739, 1949 
0:1:36:755, 1896 
0:1:36:771, 1829 
0:1:36:787, 1766 
0:1:36:802, 1727 
0:1:36:817, 1690 
0:1:36:832, 1672 
0:1:36:847, 1638 
0:1:36:863, 1614 
0:1:36:879, 1608 
0:1:36:895, 1589 
0:1:36:911, 1574 
0:1:36:927, 1554 
0:1:36:943, 1530 
0:1:36:959, 1509 
0:1:36:975, 1490 
0:1:36:990, 1495 
0:1:37:6, 1551 
0:1:37:22, 1637 
0:1:37:38, 1826 
0:1:37:53, 2090 
0:1:37:68, 2390 
0:1:37:83, 2618 
0:1:37:99, 2877 
0:1:37:115, 3100 
0:1:37:131, 3200 
0:1:37:147, 3213 
0:1:37:163, 3144 
0:1:37:179, 3021 
0:1:37:194, 2899 
0:1:37:209, 2771 
0:1:37:225, 2616 
0:1:37:241, 2490 
0:1:37:257, 2376 
0:1:37:272, 2293 
0:1:37:288, 2239 
0:1:37:303, 2189 
0:1:37:318, 2161 
0:1:37:334, 2145 
0:1:37:350, 2144 
0:1:37:365, 2143 
0:1:37:380, 2136 
0:1:37:395, 2121 
0:1:37:411, 2074 
0:1:37:427, 2035 
0:1:37:442, 1966 
0:1:37:458, 1910 
0:1:37:473, 1872 
0:1:37:489, 1805 
0:1:37:505, 1773 
0:1:37:520, 1738 
0:1:37:535, 1694 
0:1:37:550, 1659 
0:1:37:566, 1623 
0:1:37:582, 1582 
0:1:37:598, 1541 
0:1:37:614, 1505 
0:1:37:630, 1478 
0:1:37:646, 1468 
0:1:37:662, 1463 
0:1:37:678, 1462 
0:1:37:694, 1454 
0:1:37:710, 1453 
0:1:37:726, 1460 
0:1:37:741, 1492 
0:1:37:756, 1598 
0:1:37:771, 1782 
0:1:37:787, 2042 
0:1:37:802, 2356 
0:1:37:817, 2583 
0:1:37:833, 2861 
0:1:37:849, 3120 
0:1:37:865, 3239 
0:1:37:880, 3277 
0:1:37:895, 3248 
0:1:37:911, 3143 
0:1:37:927, 3066 
0:1:37:942, 2948 
0:1:37:957, 2830 
0:1:37:973, 2737 
0:1:37:988, 2605 
0:1:38:3, 2480 
0:1:38:19, 2371 
0:1:38:35, 2293 
0:1:38:50, 2240 
0:1:38:66, 2221 
0:1:38:81, 2192 
0:1:38:97, 2182 
0:1:38:113, 2168 
0:1:38:128, 2148 
0:1:38:144, 2127 
0:1:38:160, 2104 
0:1:38:176, 2055 
0:1:38:191, 2015 
0:1:38:206, 1967 
0:1:38:221, 1924 
0:1:38:236, 1864 
0:1:38:251, 1794 
0:1:38:267, 1704 
0:1:38:283, 1631 
0:1:38:299, 1586 
0:1:38:315, 1550 
0:1:38:331, 1534 
0:1:38:347, 1509 
0:1:38:363, 1489 
0:1:38:378, 1471 
0:1:38:393, 1469 
0:1:38:408, 1471 
0:1:38:424, 1487 
0:1:38:439, 1514 
0:1:38:455, 1550 
0:1:38:470, 1605 
0:1:38:486, 1656 
0:1:38:502, 1721 
0:1:38:518, 1796 
0:1:38:534, 1947 
0:1:38:549, 2107 
0:1:38:564, 2388 
0:1:38:580, 2686 
0:1:38:596, 2965 
0:1:38:612, 3249 
0:1:38:628, 3324 
0:1:38:643, 3317 
0:1:38:659, 3220 
0:1:38:675, 3112 
0:1:38:690, 2989 
0:1:38:705, 2856 
0:1:38:720, 2727 
0:1:38:736, 2622 
0:1:38:752, 2486 
0:1:38:768, 2333 
0:1:38:784, 2228 
0:1:38:799, 2144 
0:1:38:815, 2130 
0:1:38:831, 2120 
0:1:38:846, 2119 
0:1:38:861, 2123 
0:1:38:877, 2119 
0:1:38:893, 2108 
0:1:38:908, 2093 
0:1:38:923, 2058 
0:1:38:938, 2035 
0:1:38:954, 1977 
0:1:38:970, 1902 
0:1:38:985, 1849 
0:1:39:1, 1799 
0:1:39:17, 1735 
0:1:39:32, 1696 
0:1:39:47, 1654 
0:1:39:64, 1622 
0:1:39:79, 1611 
0:1:39:95, 1603 
0:1:39:111, 1592 
0:1:39:127, 1577 
0:1:39:142, 1556 
0:1:39:157, 1540 
0:1:39:172, 1520 
0:1:39:187, 1495 
0:1:39:203, 1478 
0:1:39:219, 1455 
0:1:39:234, 1435 
0:1:39:250, 1417 
0:1:39:266, 1394 
0:1:39:282, 1382 
0:1:39:297, 1398 
0:1:39:313, 1538 
0:1:39:329, 1768 
0:1:39:344, 1995 
0:1:39:360, 2353 
0:1:39:376, 2811 
0:1:39:391, 3145 
0:1:39:406, 3344 
0:1:39:422, 3423 
0:1:39:438, 3398 
0:1:39:454, 3277 
0:1:39:470, 3172 
0:1:39:486, 3061 
0:1:39:501, 2987 
0:1:39:517, 2910 
0:1:39:532, 2824 
0:1:39:548, 2742 
0:1:39:564, 2653 
0:1:39:580, 2551 
0:1:39:596, 2451 
0:1:39:612, 2390 
0:1:39:627, 2345 
0:1:39:642, 2302 
0:1:39:658, 2233 
0:1:39:674, 2179 
0:1:39:690, 2107 
0:1:39:706, 2019 
0:1:39:721, 1896 
0:1:39:736, 1801 
0:1:39:752, 1743 
0:1:39:767, 1683 
0:1:39:782, 1572 
0:1:39:798, 1513 
0:1:39:814, 1423 
0:1:39:830, 1374 
0:1:39:845, 1331 
0:1:39:860, 1281 
0:1:39:875, 1255 
0:1:39:889, 1243 
0:1:39:906, 1240 
0:1:39:922, 1259 
0:1:39:938, 1272 
0:1:39:953, 1272 
0:1:39:969, 1279 
0:1:39:985, 1281 
0:1:40:0, 1276 
0:1:40:15, 1278 
0:1:40:31, 1275 
0:1:40:47, 1264 
0:1:40:62, 1256 
0:1:40:78, 1267 
0:1:40:93, 1325 
0:1:40:108, 1441 
0:1:40:124, 1731 
0:1:40:140, 2066 
0:1:40:155, 2459 
0:1:40:171, 2765 
0:1:40:187, 3127 
0:1:40:202, 3492 
0:1:40:218, 3619 
0:1:40:233, 3643 
0:1:40:249, 3599 
0:1:40:265, 3539 
0:1:40:281, 3431 
0:1:40:297, 3266 
0:1:40:313, 3128 
0:1:40:328, 2999 
0:1:40:343, 2874 
0:1:40:358, 2807 
0:1:40:374, 2675 
0:1:40:390, 2597 
0:1:40:406, 2491 
0:1:40:422, 2427 
0:1:40:438, 2394 
0:1:40:453, 2366 
0:1:40:468, 2344 
0:1:40:484, 2306 
0:1:40:499, 2252 
0:1:40:515, 2209 
0:1:40:531, 2145 
0:1:40:547, 2084 
0:1:40:562, 2022 
0:1:40:578, 1965 
0:1:40:593, 1889 
0:1:40:609, 1818 
0:1:40:625, 1755 
0:1:40:640, 1717 
0:1:40:655, 1684 
0:1:40:671, 1635 
0:1:40:687, 1596 
0:1:40:703, 1558 
0:1:40:719, 1515 
0:1:40:735, 1489 
0:1:40:751, 1473 
0:1:40:766, 1480 
0:1:40:782, 1487 
0:1:40:797, 1492 
0:1:40:812, 1509 
0:1:40:828, 1520 
0:1:40:843, 1532 
0:1:40:859, 1558 
0:1:40:875, 1560 
0:1:40:891, 1554 
0:1:40:907, 1594 
0:1:40:922, 1682 
0:1:40:937, 1845 
0:1:40:953, 2098 
0:1:40:969, 2420 
0:1:40:985, 2681 
0:1:41:1, 3080 
0:1:41:17, 3342 
0:1:41:32, 3432 
0:1:41:47, 3459 
0:1:41:62, 3400 
0:1:41:77, 3293 
0:1:41:93, 3166 
0:1:41:109, 3038 
0:1:41:124, 2898 
0:1:41:140, 2766 
0:1:41:156, 2631 
0:1:41:172, 2454 
0:1:41:187, 2382 
0:1:41:202, 2308 
0:1:41:217, 2261 
0:1:41:232, 2255 
0:1:41:247, 2262 
0:1:41:262, 2303 
0:1:41:277, 2329 
0:1:41:292, 2325 
0:1:41:307, 2296 
0:1:41:323, 2248 
0:1:41:339, 2203 
0:1:41:355, 2155 
0:1:41:371, 2074 
0:1:41:387, 2013 
0:1:41:403, 1975 
0:1:41:419, 1890 
0:1:41:435, 1813 
0:1:41:451, 1743 
0:1:41:467, 1675 
0:1:41:482, 1649 
0:1:41:497, 1616 
0:1:41:512, 1597 
0:1:41:528, 1572 
0:1:41:543, 1545 
0:1:41:558, 1528 
0:1:41:574, 1514 
0:1:41:590, 1512 
0:1:41:605, 1510 
0:1:41:621, 1509 
0:1:41:637, 1514 
0:1:41:653, 1513 
0:1:41:669, 1511 
0:1:41:684, 1515 
0:1:41:700, 1516 
0:1:41:716, 1515 
0:1:41:731, 1515 
0:1:41:747, 1531 
0:1:41:763, 1659 
0:1:41:779, 1875 
0:1:41:795, 2280 
0:1:41:811, 2638 
0:1:41:826, 2956 
0:1:41:841, 3250 
0:1:41:856, 3365 
0:1:41:872, 3379 
0:1:41:888, 3261 
0:1:41:904, 3149 
0:1:41:920, 2984 
0:1:41:936, 2850 
0:1:41:952, 2626 
0:1:41:967, 2462 
0:1:41:982, 2297 
0:1:41:997, 2185 
0:1:42:13, 2052 
0:1:42:29, 1966 
0:1:42:44, 1889 
0:1:42:60, 1859 
0:1:42:75, 1864 
0:1:42:91, 1878 
0:1:42:107, 1894 
0:1:42:123, 1890 
0:1:42:138, 1871 
0:1:42:153, 1839 
0:1:42:169, 1800 
0:1:42:185, 1761 
0:1:42:200, 1700 
0:1:42:216, 1653 
0:1:42:232, 1590 
0:1:42:248, 1533 
0:1:42:264, 1454 
0:1:42:280, 1394 
0:1:42:296, 1330 
0:1:42:312, 1273 
0:1:42:328, 1222 
0:1:42:343, 1188 
0:1:42:359, 1168 
0:1:42:375, 1159 
0:1:42:390, 1157 
0:1:42:406, 1170 
0:1:42:421, 1181 
0:1:42:436, 1177 
0:1:42:452, 1169 
0:1:42:468, 1159 
0:1:42:484, 1165 
0:1:42:500, 1189 
0:1:42:516, 1197 
0:1:42:532, 1201 
0:1:42:547, 1189 
0:1:42:563, 1180 
0:1:42:579, 1187 
0:1:42:595, 1227 
0:1:42:611, 1332 
0:1:42:627, 1472 
0:1:42:643, 1668 
0:1:42:659, 1997 
0:1:42:674, 2336 
0:1:42:689, 2625 
0:1:42:704, 2874 
0:1:42:720, 2995 
0:1:42:736, 3000 
0:1:42:751, 2893 
0:1:42:767, 2737 
0:1:42:783, 2533 
0:1:42:799, 2382 
0:1:42:815, 2201 
0:1:42:830, 2089 
0:1:42:846, 1944 
0:1:42:862, 1798 
0:1:42:878, 1731 
0:1:42:894, 1719 
0:1:42:909, 1740 
0:1:42:924, 1790 
0:1:42:940, 1823 
0:1:42:955, 1855 
0:1:42:971, 1875 
0:1:42:987, 1861 
0:1:43:2, 1829 
0:1:43:18, 1806 
0:1:43:34, 1763 
0:1:43:50, 1718 
0:1:43:65, 1665 
0:1:43:81, 1623 
0:1:43:97, 1566 
0:1:43:113, 1520 
0:1:43:129, 1488 
0:1:43:144, 1462 
0:1:43:159, 1447 
0:1:43:175, 1421 
0:1:43:190, 1396 
0:1:43:205, 1364 
0:1:43:221, 1346 
0:1:43:237, 1327 
0:1:43:253, 1322 
0:1:43:269, 1316 
0:1:43:285, 1294 
0:1:43:301, 1280 
0:1:43:317, 1274 
0:1:43:333, 1258 
0:1:43:349, 1242 
0:1:43:365, 1213 
0:1:43:380, 1205 
0:1:43:395, 1252 
0:1:43:411, 1372 
0:1:43:427, 1586 
0:1:43:443, 1797 
0:1:43:459, 2103 
0:1:43:475, 2473 
0:1:43:491, 2743 
0:1:43:507, 2897 
0:1:43:523, 2914 
0:1:43:539, 2886 
0:1:43:554, 2782 
0:1:43:570, 2666 
0:1:43:586, 2578 
0:1:43:602, 2487 
0:1:43:617, 2364 
0:1:43:632, 2269 
0:1:43:648, 2140 
0:1:43:664, 2082 
0:1:43:680, 2013 
0:1:43:695, 1952 
0:1:43:710, 1916 
0:1:43:725, 1909 
0:1:43:741, 1922 
0:1:43:757, 1951 
0:1:43:773, 1981 
0:1:43:789, 1986 
0:1:43:805, 1980 
0:1:43:821, 1953 
0:1:43:836, 1906 
0:1:43:851, 1881 
0:1:43:866, 1841 
0:1:43:881, 1807 
0:1:43:897, 1760 
0:1:43:913, 1699 
0:1:43:929, 1650 
0:1:43:945, 1612 
0:1:43:961, 1592 
0:1:43:977, 1559 
0:1:43:993, 1536 
0:1:44:9, 1492 
0:1:44:25, 1468 
0:1:44:41, 1439 
0:1:44:56, 1418 
0:1:44:72, 1388 
0:1:44:87, 1383 
0:1:44:102, 1379 
0:1:44:117, 1380 
0:1:44:132, 1379 
0:1:44:148, 1368 
0:1:44:164, 1383 
0:1:44:180, 1423 
0:1:44:196, 1527 
0:1:44:212, 1722 
0:1:44:228, 2063 
0:1:44:244, 2376 
0:1:44:260, 2606 
0:1:44:276, 2809 
0:1:44:292, 3054 
0:1:44:308, 3174 
0:1:44:323, 3195 
0:1:44:338, 3162 
0:1:44:354, 3083 
0:1:44:370, 2973 
0:1:44:386, 2909 
0:1:44:401, 2822 
0:1:44:416, 2722 
0:1:44:432, 2652 
0:1:44:448, 2564 
0:1:44:464, 2477 
0:1:44:479, 2450 
0:1:44:495, 2444 
0:1:44:511, 2459 
0:1:44:527, 2480 
0:1:44:542, 2480 
0:1:44:557, 2502 
0:1:44:572, 2514 
0:1:44:588, 2505 
0:1:44:604, 2481 
0:1:44:619, 2462 
0:1:44:634, 2423 
0:1:44:650, 2373 
0:1:44:665, 2317 
0:1:44:682, 2265 
0:1:44:696, 2223 
0:1:44:712, 2168 
0:1:44:728, 2101 
0:1:44:743, 2032 
0:1:44:759, 1949 
0:1:44:775, 1888 
0:1:44:790, 1852 
0:1:44:805, 1796 
0:1:44:821, 1760 
0:1:44:837, 1730 
0:1:44:853, 1682 
0:1:44:869, 1647 
0:1:44:885, 1633 
0:1:44:900, 1635 
0:1:44:915, 1681 
0:1:44:931, 1812 
0:1:44:946, 2019 
0:1:44:961, 2295 
0:1:44:976, 2589 
0:1:44:992, 2929 
0:1:45:8, 3175 
0:1:45:23, 3293 
0:1:45:38, 3345 
0:1:45:54, 3339 
0:1:45:70, 3291 
0:1:45:86, 3215 
0:1:45:102, 3114 
0:1:45:118, 3004 
0:1:45:134, 2880 
0:1:45:149, 2725 
0:1:45:165, 2604 
0:1:45:181, 2463 
0:1:45:196, 2384 
0:1:45:212, 2309 
0:1:45:228, 2273 
0:1:45:244, 2257 
0:1:45:259, 2236 
0:1:45:274, 2227 
0:1:45:290, 2216 
0:1:45:306, 2186 
0:1:45:322, 2153 
0:1:45:338, 2135 
0:1:45:354, 2104 
0:1:45:369, 2066 
0:1:45:384, 2029 
0:1:45:400, 1989 
0:1:45:415, 1940 
0:1:45:431, 1880 
0:1:45:447, 1830 
0:1:45:463, 1789 
0:1:45:479, 1759 
0:1:45:495, 1741 
0:1:45:510, 1728 
0:1:45:525, 1712 
0:1:45:540, 1701 
0:1:45:556, 1690 
0:1:45:571, 1663 
0:1:45:587, 1635 
0:1:45:602, 1605 
0:1:45:618, 1624 
0:1:45:634, 1712 
0:1:45:649, 1834 
0:1:45:665, 2141 
0:1:45:681, 2457 
0:1:45:697, 2776 
0:1:45:713, 3133 
0:1:45:729, 3356 
0:1:45:745, 3410 
0:1:45:760, 3448 
0:1:45:775, 3467 
0:1:45:791, 3418 
0:1:45:807, 3343 
0:1:45:823, 3236 
0:1:45:839, 3148 
0:1:45:854, 3041 
0:1:45:870, 2901 
0:1:45:886, 2800 
0:1:45:902, 2694 
0:1:45:918, 2607 
0:1:45:934, 2519 
0:1:45:950, 2486 
0:1:45:966, 2468 
