Time, Data
0:0:0:0, 2044 
0:0:0:17, 2031 
0:0:0:33, 2010 
0:0:0:49, 1997 
0:0:0:64, 1984 
0:0:0:80, 1963 
0:0:0:95, 1950 
0:0:0:111, 1920 
0:0:0:127, 1904 
0:0:0:143, 1893 
0:0:0:158, 1881 
0:0:0:174, 1869 
0:0:0:190, 1856 
0:0:0:206, 1847 
0:0:0:221, 1839 
0:0:0:237, 1833 
0:0:0:252, 1829 
0:0:0:268, 1836 
0:0:0:284, 1858 
0:0:0:300, 1899 
0:0:0:316, 2011 
0:0:0:332, 2096 
0:0:0:347, 2216 
0:0:0:363, 2342 
0:0:0:379, 2425 
0:0:0:395, 2439 
0:0:0:410, 2439 
0:0:0:426, 2418 
0:0:0:441, 2389 
0:0:0:457, 2366 
0:0:0:473, 2327 
0:0:0:489, 2313 
0:0:0:504, 2270 
0:0:0:520, 2210 
0:0:0:535, 2180 
0:0:0:551, 2152 
0:0:0:566, 2125 
0:0:0:582, 2088 
0:0:0:597, 2064 
0:0:0:613, 2049 
0:0:0:628, 2045 
0:0:0:643, 2053 
0:0:0:659, 2074 
0:0:0:675, 2091 
0:0:0:690, 2105 
0:0:0:706, 2099 
0:0:0:722, 2078 
0:0:0:737, 2050 
0:0:0:753, 2024 
0:0:0:768, 1996 
0:0:0:784, 1958 
0:0:0:799, 1922 
0:0:0:814, 1895 
0:0:0:829, 1868 
0:0:0:845, 1851 
0:0:0:860, 1836 
0:0:0:876, 1824 
0:0:0:892, 1821 
0:0:0:907, 1821 
0:0:0:923, 1823 
0:0:0:938, 1825 
0:0:0:954, 1837 
0:0:0:970, 1853 
0:0:0:986, 1891 
0:0:1:2, 1949 
0:0:1:17, 1998 
0:0:1:32, 2052 
0:0:1:48, 2167 
0:0:1:64, 2249 
0:0:1:80, 2337 
0:0:1:95, 2378 
0:0:1:110, 2405 
0:0:1:126, 2412 
0:0:1:142, 2408 
0:0:1:159, 2397 
0:0:1:173, 2381 
0:0:1:188, 2372 
0:0:1:203, 2350 
0:0:1:218, 2327 
0:0:1:234, 2301 
0:0:1:251, 2275 
0:0:1:266, 2234 
0:0:1:281, 2206 
0:0:1:297, 2178 
0:0:1:315, 2125 
0:0:1:328, 2102 
0:0:1:344, 2066 
0:0:1:360, 2047 
0:0:1:375, 2044 
0:0:1:391, 2051 
0:0:1:407, 2071 
0:0:1:423, 2094 
0:0:1:439, 2100 
0:0:1:454, 2090 
0:0:1:469, 2071 
0:0:1:485, 2055 
0:0:1:500, 2036 
0:0:1:516, 2023 
0:0:1:531, 2003 
0:0:1:547, 1974 
0:0:1:562, 1946 
0:0:1:578, 1921 
0:0:1:594, 1909 
0:0:1:609, 1893 
0:0:1:625, 1868 
0:0:1:641, 1851 
0:0:1:656, 1836 
0:0:1:672, 1829 
0:0:1:688, 1823 
0:0:1:703, 1820 
0:0:1:719, 1818 
0:0:1:735, 1818 
0:0:1:751, 1829 
0:0:1:766, 1879 
0:0:1:782, 1934 
0:0:1:798, 2006 
0:0:1:814, 2115 
0:0:1:830, 2223 
0:0:1:846, 2292 
0:0:1:861, 2365 
0:0:1:877, 2385 
0:0:1:892, 2386 
0:0:1:908, 2371 
0:0:1:924, 2324 
0:0:1:940, 2262 
0:0:1:956, 2193 
0:0:1:971, 2136 
0:0:1:986, 2088 
0:0:2:1, 2054 
0:0:2:16, 2040 
0:0:2:31, 2039 
0:0:2:46, 2059 
0:0:2:62, 2085 
0:0:2:77, 2096 
0:0:2:93, 2096 
0:0:2:108, 2088 
0:0:2:123, 2062 
0:0:2:139, 2045 
0:0:2:154, 2018 
0:0:2:170, 1983 
0:0:2:186, 1942 
0:0:2:202, 1914 
0:0:2:217, 1885 
0:0:2:233, 1869 
0:0:2:248, 1854 
0:0:2:265, 1846 
0:0:2:281, 1838 
0:0:2:297, 1833 
0:0:2:313, 1830 
0:0:2:328, 1827 
0:0:2:345, 1826 
0:0:2:360, 1825 
0:0:2:375, 1833 
0:0:2:391, 1852 
0:0:2:406, 1904 
0:0:2:422, 1964 
0:0:2:438, 2038 
0:0:2:454, 2148 
0:0:2:469, 2273 
0:0:2:484, 2351 
0:0:2:500, 2381 
0:0:2:516, 2384 
0:0:2:531, 2375 
0:0:2:547, 2356 
0:0:2:563, 2328 
0:0:2:578, 2281 
0:0:2:594, 2255 
0:0:2:610, 2243 
0:0:2:625, 2188 
0:0:2:641, 2174 
0:0:2:657, 2134 
0:0:2:672, 2110 
0:0:2:687, 2079 
0:0:2:702, 2054 
0:0:2:718, 2039 
0:0:2:734, 2038 
0:0:2:749, 2050 
0:0:2:764, 2067 
0:0:2:780, 2081 
0:0:2:795, 2088 
0:0:2:811, 2089 
0:0:2:826, 2090 
0:0:2:842, 2084 
0:0:2:858, 2074 
0:0:2:873, 2055 
0:0:2:889, 2037 
0:0:2:905, 2010 
0:0:2:920, 1983 
0:0:2:936, 1944 
0:0:2:952, 1920 
0:0:2:968, 1888 
0:0:2:984, 1873 
0:0:2:999, 1857 
0:0:3:14, 1846 
0:0:3:30, 1837 
0:0:3:46, 1829 
0:0:3:62, 1824 
0:0:3:78, 1820 
0:0:3:94, 1819 
0:0:3:109, 1818 
0:0:3:125, 1816 
0:0:3:141, 1812 
0:0:3:157, 1810 
0:0:3:172, 1821 
0:0:3:188, 1872 
0:0:3:203, 1950 
0:0:3:219, 2085 
0:0:3:234, 2201 
0:0:3:250, 2320 
0:0:3:265, 2394 
0:0:3:279, 2404 
0:0:3:296, 2394 
0:0:3:311, 2373 
0:0:3:326, 2334 
0:0:3:342, 2276 
0:0:3:358, 2199 
0:0:3:373, 2172 
0:0:3:389, 2135 
0:0:3:404, 2085 
0:0:3:421, 2058 
0:0:3:436, 2057 
0:0:3:452, 2071 
0:0:3:468, 2092 
0:0:3:484, 2100 
0:0:3:499, 2103 
0:0:3:514, 2110 
0:0:3:530, 2109 
0:0:3:545, 2092 
0:0:3:561, 2066 
0:0:3:576, 2048 
0:0:3:591, 2034 
0:0:3:607, 2020 
0:0:3:623, 2005 
0:0:3:638, 1982 
0:0:3:653, 1947 
0:0:3:669, 1924 
0:0:3:685, 1899 
0:0:3:701, 1883 
0:0:3:716, 1872 
0:0:3:732, 1862 
0:0:3:747, 1854 
0:0:3:762, 1847 
0:0:3:777, 1841 
0:0:3:793, 1838 
0:0:3:808, 1835 
0:0:3:824, 1833 
0:0:3:839, 1830 
0:0:3:854, 1826 
0:0:3:869, 1822 
0:0:3:885, 1819 
0:0:3:900, 1825 
0:0:3:916, 1836 
0:0:3:931, 1867 
0:0:3:946, 1940 
0:0:3:962, 2046 
0:0:3:978, 2221 
0:0:3:993, 2319 
0:0:4:9, 2404 
0:0:4:25, 2421 
0:0:4:41, 2397 
0:0:4:56, 2370 
0:0:4:72, 2325 
0:0:4:87, 2274 
0:0:4:103, 2236 
0:0:4:119, 2169 
0:0:4:134, 2145 
0:0:4:149, 2103 
0:0:4:165, 2071 
0:0:4:181, 2065 
0:0:4:197, 2066 
0:0:4:213, 2075 
0:0:4:228, 2086 
0:0:4:244, 2094 
0:0:4:260, 2099 
0:0:4:275, 2109 
0:0:4:290, 2114 
0:0:4:306, 2116 
0:0:4:322, 2113 
0:0:4:337, 2108 
0:0:4:352, 2100 
0:0:4:368, 2077 
0:0:4:384, 2064 
0:0:4:399, 2043 
0:0:4:415, 2021 
0:0:4:431, 1992 
0:0:4:446, 1977 
0:0:4:462, 1940 
0:0:4:478, 1913 
0:0:4:494, 1882 
0:0:4:509, 1862 
0:0:4:525, 1846 
0:0:4:540, 1833 
0:0:4:556, 1826 
0:0:4:572, 1819 
0:0:4:587, 1815 
0:0:4:602, 1814 
0:0:4:618, 1811 
0:0:4:634, 1807 
0:0:4:649, 1804 
0:0:4:665, 1800 
0:0:4:681, 1797 
0:0:4:696, 1794 
0:0:4:712, 1803 
0:0:4:728, 1824 
0:0:4:744, 1883 
0:0:4:760, 1976 
0:0:4:776, 2092 
0:0:4:792, 2260 
0:0:4:807, 2366 
0:0:4:823, 2400 
0:0:4:839, 2390 
0:0:4:855, 2356 
0:0:4:871, 2302 
0:0:4:886, 2238 
0:0:4:901, 2184 
0:0:4:917, 2132 
0:0:4:933, 2099 
0:0:4:948, 2057 
0:0:4:964, 2051 
0:0:4:980, 2050 
0:0:4:996, 2061 
0:0:5:12, 2076 
0:0:5:27, 2089 
0:0:5:43, 2091 
0:0:5:59, 2079 
0:0:5:74, 2067 
0:0:5:90, 2039 
0:0:5:106, 2013 
0:0:5:122, 1972 
0:0:5:138, 1937 
0:0:5:153, 1912 
0:0:5:168, 1889 
0:0:5:184, 1864 
0:0:5:199, 1843 
0:0:5:215, 1829 
0:0:5:231, 1820 
0:0:5:246, 1814 
0:0:5:262, 1811 
0:0:5:277, 1809 
0:0:5:292, 1807 
0:0:5:308, 1806 
0:0:5:324, 1801 
0:0:5:340, 1797 
0:0:5:356, 1796 
0:0:5:371, 1794 
0:0:5:387, 1794 
0:0:5:403, 1809 
0:0:5:418, 1840 
0:0:5:434, 1913 
0:0:5:449, 2018 
0:0:5:465, 2108 
0:0:5:480, 2222 
0:0:5:496, 2362 
0:0:5:512, 2393 
0:0:5:527, 2404 
0:0:5:543, 2393 
0:0:5:559, 2362 
0:0:5:575, 2307 
0:0:5:590, 2245 
0:0:5:606, 2179 
0:0:5:621, 2105 
0:0:5:637, 2057 
0:0:5:653, 2048 
0:0:5:668, 2065 
0:0:5:684, 2089 
0:0:5:700, 2099 
0:0:5:715, 2093 
0:0:5:730, 2078 
0:0:5:746, 2061 
0:0:5:761, 2043 
0:0:5:776, 2015 
0:0:5:792, 1979 
0:0:5:807, 1951 
0:0:5:823, 1931 
0:0:5:839, 1900 
0:0:5:854, 1889 
0:0:5:869, 1878 
0:0:5:885, 1860 
0:0:5:900, 1848 
0:0:5:916, 1838 
0:0:5:932, 1828 
0:0:5:947, 1819 
0:0:5:963, 1813 
0:0:5:978, 1808 
0:0:5:994, 1803 
0:0:6:9, 1799 
0:0:6:25, 1798 
0:0:6:41, 1810 
0:0:6:57, 1861 
0:0:6:73, 1994 
0:0:6:88, 2109 
0:0:6:103, 2224 
0:0:6:119, 2359 
0:0:6:135, 2395 
0:0:6:151, 2375 
0:0:6:167, 2340 
0:0:6:182, 2318 
0:0:6:197, 2258 
0:0:6:212, 2204 
0:0:6:227, 2136 
0:0:6:243, 2089 
0:0:6:258, 2046 
0:0:6:273, 2031 
0:0:6:288, 2029 
0:0:6:304, 2031 
0:0:6:320, 2043 
0:0:6:335, 2064 
0:0:6:351, 2078 
0:0:6:366, 2079 
0:0:6:382, 2072 
0:0:6:398, 2055 
0:0:6:413, 2028 
0:0:6:428, 2001 
0:0:6:444, 1966 
0:0:6:460, 1932 
0:0:6:475, 1900 
0:0:6:491, 1888 
0:0:6:506, 1871 
0:0:6:522, 1852 
0:0:6:537, 1835 
0:0:6:552, 1821 
0:0:6:568, 1810 
0:0:6:584, 1804 
0:0:6:599, 1803 
0:0:6:615, 1802 
0:0:6:630, 1800 
0:0:6:646, 1798 
0:0:6:662, 1796 
0:0:6:677, 1793 
0:0:6:693, 1788 
0:0:6:709, 1785 
0:0:6:725, 1793 
0:0:6:740, 1840 
0:0:6:756, 1918 
0:0:6:771, 1971 
0:0:6:786, 2092 
0:0:6:802, 2214 
0:0:6:817, 2316 
0:0:6:833, 2404 
0:0:6:848, 2422 
0:0:6:864, 2394 
0:0:6:879, 2344 
0:0:6:894, 2308 
0:0:6:909, 2244 
0:0:6:925, 2183 
0:0:6:941, 2136 
0:0:6:956, 2084 
0:0:6:987, 2069 
0:0:7:2, 2081 
0:0:7:18, 2097 
0:0:7:34, 2111 
0:0:7:50, 2119 
0:0:7:66, 2116 
0:0:7:81, 2102 
0:0:7:96, 2092 
0:0:7:112, 2065 
0:0:7:127, 2042 
0:0:7:142, 2010 
0:0:7:158, 1995 
0:0:7:174, 1970 
0:0:7:189, 1946 
0:0:7:205, 1923 
0:0:7:221, 1909 
0:0:7:236, 1889 
0:0:7:252, 1877 
0:0:7:267, 1866 
0:0:7:283, 1852 
0:0:7:300, 1835 
0:0:7:315, 1824 
0:0:7:331, 1815 
0:0:7:347, 1807 
0:0:7:363, 1803 
0:0:7:378, 1797 
0:0:7:393, 1793 
0:0:7:409, 1790 
0:0:7:425, 1786 
0:0:7:441, 1781 
0:0:7:456, 1778 
0:0:7:472, 1776 
0:0:7:487, 1783 
0:0:7:502, 1813 
0:0:7:518, 1901 
0:0:7:533, 2041 
0:0:7:547, 2202 
0:0:7:563, 2366 
0:0:7:578, 2434 
0:0:7:593, 2437 
0:0:7:609, 2433 
0:0:7:624, 2423 
0:0:7:640, 2398 
0:0:7:655, 2377 
0:0:7:672, 2329 
0:0:7:688, 2289 
0:0:7:704, 2248 
0:0:7:720, 2191 
0:0:7:735, 2137 
0:0:7:751, 2092 
0:0:7:767, 2062 
0:0:7:783, 2048 
0:0:7:799, 2049 
0:0:7:815, 2059 
0:0:7:830, 2081 
0:0:7:845, 2091 
0:0:7:861, 2098 
0:0:7:877, 2099 
0:0:7:893, 2094 
0:0:7:908, 2088 
0:0:7:924, 2067 
0:0:7:939, 2042 
0:0:7:955, 2008 
0:0:7:972, 1987 
0:0:7:987, 1965 
0:0:8:2, 1945 
0:0:8:17, 1925 
0:0:8:33, 1907 
0:0:8:49, 1896 
0:0:8:64, 1876 
0:0:8:79, 1862 
0:0:8:95, 1854 
0:0:8:110, 1845 
0:0:8:125, 1831 
0:0:8:140, 1822 
0:0:8:156, 1814 
0:0:8:172, 1809 
0:0:8:187, 1806 
0:0:8:203, 1803 
0:0:8:218, 1798 
0:0:8:233, 1795 
0:0:8:249, 1793 
0:0:8:264, 1793 
0:0:8:279, 1791 
0:0:8:295, 1787 
0:0:8:310, 1786 
0:0:8:326, 1784 
0:0:8:341, 1798 
0:0:8:357, 1856 
0:0:8:372, 1970 
0:0:8:387, 2117 
0:0:8:403, 2281 
0:0:8:418, 2364 
0:0:8:434, 2395 
0:0:8:449, 2397 
0:0:8:464, 2388 
0:0:8:480, 2356 
0:0:8:496, 2335 
0:0:8:512, 2299 
0:0:8:528, 2259 
0:0:8:544, 2201 
0:0:8:560, 2144 
0:0:8:576, 2116 
0:0:8:591, 2079 
0:0:8:607, 2049 
0:0:8:622, 2027 
0:0:8:637, 2018 
0:0:8:653, 2021 
0:0:8:668, 2037 
0:0:8:684, 2065 
0:0:8:699, 2084 
0:0:8:715, 2095 
0:0:8:730, 2095 
0:0:8:746, 2083 
0:0:8:761, 2064 
0:0:8:777, 2040 
0:0:8:793, 2008 
0:0:8:808, 1988 
0:0:8:824, 1955 
0:0:8:839, 1922 
0:0:8:855, 1904 
0:0:8:871, 1880 
0:0:8:886, 1860 
0:0:8:902, 1844 
0:0:8:917, 1833 
0:0:8:932, 1827 
0:0:8:947, 1821 
0:0:8:963, 1818 
0:0:8:978, 1813 
0:0:8:994, 1810 
0:0:9:10, 1809 
0:0:9:26, 1816 
0:0:9:41, 1846 
0:0:9:57, 1955 
0:0:9:72, 2097 
0:0:9:87, 2186 
0:0:9:103, 2293 
0:0:9:119, 2379 
0:0:9:135, 2416 
0:0:9:150, 2413 
0:0:9:166, 2396 
0:0:9:181, 2379 
0:0:9:196, 2379 
0:0:9:212, 2358 
0:0:9:228, 2310 
0:0:9:243, 2243 
0:0:9:259, 2174 
0:0:9:275, 2123 
0:0:9:291, 2067 
0:0:9:306, 2048 
0:0:9:322, 2057 
0:0:9:338, 2081 
0:0:9:353, 2104 
0:0:9:369, 2117 
0:0:9:385, 2110 
0:0:9:401, 2083 
0:0:9:417, 2037 
0:0:9:432, 2000 
0:0:9:448, 1949 
0:0:9:463, 1910 
0:0:9:478, 1877 
0:0:9:493, 1853 
0:0:9:508, 1836 
0:0:9:523, 1827 
0:0:9:539, 1819 
0:0:9:555, 1815 
0:0:9:571, 1813 
0:0:9:587, 1824 
0:0:9:602, 1874 
0:0:9:617, 2037 
0:0:9:632, 2218 
0:0:9:647, 2371 
0:0:9:662, 2433 
0:0:9:677, 2416 
0:0:9:692, 2356 
0:0:9:708, 2277 
0:0:9:724, 2180 
0:0:9:740, 2103 
0:0:9:755, 2060 
0:0:9:770, 2055 
0:0:9:786, 2079 
0:0:9:802, 2098 
0:0:9:818, 2116 
0:0:9:834, 2119 
0:0:9:849, 2112 
0:0:9:865, 2098 
0:0:9:880, 2077 
0:0:9:896, 2045 
0:0:9:912, 2009 
0:0:9:927, 1981 
0:0:9:943, 1955 
0:0:9:958, 1931 
0:0:9:974, 1909 
0:0:9:990, 1889 
0:0:10:5, 1880 
0:0:10:21, 1872 
0:0:10:36, 1861 
0:0:10:51, 1856 
0:0:10:67, 1848 
0:0:10:82, 1845 
0:0:10:98, 1843 
0:0:10:113, 1842 
0:0:10:129, 1839 
0:0:10:144, 1837 
0:0:10:160, 1834 
0:0:10:176, 1830 
0:0:10:192, 1828 
0:0:10:208, 1829 
0:0:10:224, 1845 
0:0:10:239, 1877 
0:0:10:255, 1952 
0:0:10:270, 2031 
0:0:10:285, 2120 
0:0:10:301, 2181 
0:0:10:316, 2266 
0:0:10:332, 2358 
0:0:10:348, 2413 
0:0:10:364, 2437 
0:0:10:379, 2430 
0:0:10:394, 2401 
0:0:10:409, 2359 
0:0:10:425, 2323 
0:0:10:440, 2298 
0:0:10:456, 2271 
0:0:10:471, 2230 
0:0:10:487, 2176 
0:0:10:503, 2137 
0:0:10:518, 2094 
0:0:10:533, 2072 
0:0:10:548, 2062 
0:0:10:565, 2062 
0:0:10:580, 2079 
0:0:10:596, 2088 
0:0:10:612, 2104 
0:0:10:627, 2114 
0:0:10:642, 2117 
0:0:10:659, 2118 
0:0:10:674, 2110 
0:0:10:690, 2093 
0:0:10:706, 2076 
0:0:10:722, 2050 
0:0:10:738, 2006 
0:0:10:754, 1969 
0:0:10:769, 1927 
0:0:10:784, 1897 
0:0:10:799, 1868 
0:0:10:815, 1849 
0:0:10:831, 1831 
0:0:10:846, 1820 
0:0:10:862, 1815 
0:0:10:877, 1810 
0:0:10:892, 1806 
0:0:10:908, 1806 
0:0:10:924, 1818 
0:0:10:939, 1844 
0:0:10:955, 1910 
0:0:10:970, 2012 
0:0:10:986, 2103 
0:0:11:2, 2224 
0:0:11:18, 2350 
0:0:11:33, 2397 
0:0:11:48, 2433 
0:0:11:65, 2436 
0:0:11:80, 2424 
0:0:11:96, 2409 
0:0:11:111, 2353 
0:0:11:127, 2301 
0:0:11:142, 2229 
0:0:11:158, 2185 
0:0:11:174, 2132 
0:0:11:190, 2097 
0:0:11:205, 2064 
0:0:11:221, 2047 
0:0:11:236, 2048 
0:0:11:251, 2063 
0:0:11:267, 2078 
0:0:11:283, 2100 
0:0:11:299, 2113 
0:0:11:314, 2109 
0:0:11:330, 2094 
0:0:11:345, 2071 
0:0:11:361, 2043 
0:0:11:377, 2012 
0:0:11:393, 1981 
0:0:11:409, 1951 
0:0:11:424, 1921 
0:0:11:440, 1896 
0:0:11:456, 1885 
0:0:11:472, 1869 
0:0:11:487, 1856 
0:0:11:502, 1851 
0:0:11:517, 1838 
0:0:11:533, 1831 
0:0:11:548, 1830 
0:0:11:564, 1826 
0:0:11:580, 1824 
0:0:11:595, 1824 
0:0:11:611, 1823 
0:0:11:627, 1825 
0:0:11:642, 1824 
0:0:11:658, 1826 
0:0:11:673, 1840 
0:0:11:689, 1877 
0:0:11:705, 1947 
0:0:11:720, 2048 
0:0:11:736, 2136 
0:0:11:751, 2252 
0:0:11:767, 2346 
0:0:11:783, 2425 
0:0:11:799, 2433 
0:0:11:815, 2408 
0:0:11:830, 2353 
0:0:11:845, 2295 
0:0:11:861, 2251 
0:0:11:877, 2164 
0:0:11:893, 2114 
0:0:11:908, 2093 
0:0:11:924, 2064 
0:0:11:940, 2054 
0:0:11:955, 2067 
0:0:11:971, 2090 
0:0:11:986, 2106 
0:0:12:2, 2117 
0:0:12:17, 2110 
0:0:12:33, 2094 
0:0:12:49, 2078 
0:0:12:65, 2053 
0:0:12:81, 2019 
0:0:12:96, 1992 
0:0:12:112, 1959 
0:0:12:127, 1941 
0:0:12:142, 1924 
0:0:12:157, 1907 
0:0:12:173, 1886 
0:0:12:189, 1869 
0:0:12:204, 1856 
0:0:12:220, 1843 
0:0:12:235, 1837 
0:0:12:251, 1830 
0:0:12:267, 1826 
0:0:12:283, 1826 
0:0:12:299, 1824 
0:0:12:314, 1823 
0:0:12:329, 1826 
0:0:12:344, 1834 
0:0:12:361, 1846 
0:0:12:376, 1866 
0:0:12:391, 1894 
0:0:12:407, 1954 
0:0:12:423, 2091 
0:0:12:439, 2184 
0:0:12:454, 2298 
0:0:12:469, 2365 
0:0:12:485, 2432 
0:0:12:501, 2446 
0:0:12:517, 2438 
0:0:12:533, 2415 
0:0:12:548, 2372 
0:0:12:563, 2347 
0:0:12:579, 2307 
0:0:12:594, 2279 
0:0:12:609, 2236 
0:0:12:624, 2177 
0:0:12:639, 2150 
0:0:12:654, 2113 
0:0:12:670, 2077 
0:0:12:685, 2056 
0:0:12:701, 2058 
0:0:12:716, 2076 
0:0:12:732, 2095 
0:0:12:748, 2114 
0:0:12:764, 2120 
0:0:12:780, 2118 
0:0:12:795, 2105 
0:0:12:811, 2079 
0:0:12:827, 2052 
0:0:12:842, 2018 
0:0:12:858, 1983 
0:0:12:873, 1956 
0:0:12:889, 1930 
0:0:12:905, 1913 
0:0:12:921, 1893 
0:0:12:937, 1880 
0:0:12:953, 1864 
0:0:12:969, 1854 
0:0:12:985, 1847 
0:0:13:0, 1846 
0:0:13:16, 1841 
0:0:13:31, 1837 
0:0:13:47, 1833 
0:0:13:63, 1831 
0:0:13:78, 1831 
0:0:13:94, 1831 
0:0:13:110, 1831 
0:0:13:126, 1835 
0:0:13:141, 1858 
0:0:13:156, 1913 
0:0:13:171, 1981 
0:0:13:187, 2066 
0:0:13:203, 2161 
0:0:13:218, 2313 
0:0:13:234, 2422 
0:0:13:249, 2484 
0:0:13:264, 2488 
0:0:13:280, 2446 
0:0:13:295, 2389 
0:0:13:311, 2311 
0:0:13:326, 2240 
0:0:13:341, 2173 
0:0:13:357, 2123 
0:0:13:373, 2099 
0:0:13:389, 2098 
0:0:13:404, 2102 
0:0:13:419, 2111 
0:0:13:435, 2118 
0:0:13:450, 2129 
0:0:13:466, 2140 
0:0:13:482, 2139 
0:0:13:497, 2132 
0:0:13:513, 2120 
0:0:13:528, 2105 
0:0:13:544, 2092 
0:0:13:559, 2066 
0:0:13:574, 2044 
0:0:13:591, 2022 
0:0:13:607, 2014 
0:0:13:623, 1986 
0:0:13:639, 1961 
0:0:13:655, 1938 
0:0:13:670, 1919 
0:0:13:686, 1905 
0:0:13:702, 1893 
0:0:13:718, 1882 
0:0:13:733, 1872 
0:0:13:749, 1866 
0:0:13:765, 1858 
0:0:13:781, 1852 
0:0:13:796, 1847 
0:0:13:812, 1846 
0:0:13:827, 1843 
0:0:13:843, 1840 
0:0:13:859, 1837 
0:0:13:874, 1836 
0:0:13:890, 1836 
0:0:13:906, 1836 
0:0:13:922, 1841 
0:0:13:938, 1849 
0:0:13:953, 1873 
0:0:13:969, 1934 
0:0:13:984, 2005 
0:0:14:0, 2090 
0:0:14:15, 2183 
0:0:14:31, 2272 
0:0:14:47, 2325 
0:0:14:62, 2390 
0:0:14:78, 2443 
0:0:14:94, 2458 
0:0:14:109, 2462 
0:0:14:125, 2441 
0:0:14:141, 2409 
0:0:14:156, 2361 
0:0:14:172, 2292 
0:0:14:187, 2235 
0:0:14:203, 2194 
0:0:14:218, 2156 
0:0:14:234, 2126 
0:0:14:249, 2102 
0:0:14:265, 2092 
0:0:14:281, 2082 
0:0:14:296, 2085 
0:0:14:312, 2092 
0:0:14:327, 2106 
0:0:14:342, 2116 
0:0:14:358, 2123 
0:0:14:374, 2121 
0:0:14:390, 2114 
0:0:14:405, 2106 
0:0:14:420, 2090 
0:0:14:437, 2078 
0:0:14:453, 2058 
0:0:14:469, 2037 
0:0:14:484, 2023 
0:0:14:500, 2000 
0:0:14:514, 1964 
0:0:14:529, 1950 
0:0:14:545, 1925 
0:0:14:560, 1907 
0:0:14:576, 1887 
0:0:14:592, 1879 
0:0:14:607, 1871 
0:0:14:622, 1860 
0:0:14:638, 1850 
0:0:14:654, 1841 
0:0:14:669, 1837 
0:0:14:685, 1834 
0:0:14:701, 1827 
0:0:14:716, 1824 
0:0:14:732, 1818 
0:0:14:748, 1815 
0:0:14:764, 1811 
0:0:14:779, 1820 
0:0:14:795, 1867 
0:0:14:811, 1972 
0:0:14:826, 2119 
0:0:14:842, 2267 
0:0:14:857, 2339 
0:0:14:873, 2414 
0:0:14:888, 2435 
0:0:14:904, 2433 
0:0:14:919, 2416 
0:0:14:936, 2377 
0:0:14:952, 2341 
0:0:14:968, 2301 
0:0:14:983, 2260 
0:0:14:999, 2204 
0:0:15:14, 2178 
0:0:15:29, 2153 
0:0:15:45, 2105 
0:0:15:56, 2092 
0:0:15:77, 2079 
0:0:15:92, 2084 
0:0:15:107, 2088 
0:0:15:123, 2096 
0:0:15:138, 2105 
0:0:15:154, 2124 
0:0:15:170, 2134 
0:0:15:185, 2139 
0:0:15:201, 2141 
0:0:15:216, 2134 
0:0:15:232, 2128 
0:0:15:247, 2114 
0:0:15:263, 2096 
0:0:15:279, 2069 
0:0:15:295, 2038 
0:0:15:309, 2023 
0:0:15:325, 2000 
0:0:15:340, 1978 
0:0:15:357, 1951 
0:0:15:372, 1939 
0:0:15:388, 1918 
0:0:15:403, 1904 
0:0:15:419, 1885 
0:0:15:434, 1879 
0:0:15:450, 1871 
0:0:15:466, 1861 
0:0:15:481, 1858 
0:0:15:496, 1854 
0:0:15:512, 1850 
0:0:15:527, 1848 
0:0:15:543, 1845 
0:0:15:559, 1841 
0:0:15:575, 1835 
0:0:15:591, 1832 
0:0:15:607, 1826 
0:0:15:623, 1825 
0:0:15:638, 1831 
0:0:15:653, 1860 
0:0:15:668, 1906 
0:0:15:684, 1997 
0:0:15:700, 2081 
0:0:15:715, 2201 
0:0:15:730, 2307 
0:0:15:746, 2350 
0:0:15:762, 2416 
0:0:15:778, 2432 
0:0:15:793, 2419 
0:0:15:810, 2385 
0:0:15:825, 2351 
0:0:15:840, 2314 
0:0:15:855, 2274 
0:0:15:871, 2231 
0:0:15:886, 2188 
0:0:15:903, 2136 
0:0:15:919, 2112 
0:0:15:933, 2084 
0:0:15:949, 2066 
0:0:15:965, 2056 
0:0:15:980, 2058 
0:0:15:995, 2062 
0:0:16:11, 2072 
0:0:16:26, 2084 
0:0:16:42, 2094 
0:0:16:57, 2099 
0:0:16:72, 2103 
0:0:16:88, 2095 
0:0:16:103, 2081 
0:0:16:118, 2057 
0:0:16:135, 2019 
0:0:16:151, 1997 
0:0:16:166, 1990 
0:0:16:182, 1959 
0:0:16:198, 1923 
0:0:16:214, 1898 
0:0:16:230, 1882 
0:0:16:245, 1864 
0:0:16:261, 1852 
0:0:16:277, 1838 
0:0:16:293, 1828 
0:0:16:308, 1825 
0:0:16:323, 1820 
0:0:16:339, 1817 
0:0:16:355, 1816 
0:0:16:370, 1815 
0:0:16:385, 1814 
0:0:16:400, 1813 
0:0:16:416, 1810 
0:0:16:431, 1807 
0:0:16:447, 1809 
0:0:16:463, 1829 
0:0:16:478, 1850 
0:0:16:495, 1923 
0:0:16:510, 2004 
0:0:16:526, 2099 
0:0:16:541, 2264 
0:0:16:557, 2397 
0:0:16:572, 2470 
0:0:16:587, 2488 
0:0:16:602, 2489 
0:0:16:617, 2468 
0:0:16:634, 2428 
0:0:16:649, 2378 
0:0:16:664, 2295 
0:0:16:680, 2235 
0:0:16:696, 2193 
0:0:16:710, 2136 
0:0:16:726, 2098 
0:0:16:742, 2094 
0:0:16:757, 2104 
0:0:16:773, 2114 
0:0:16:788, 2120 
0:0:16:805, 2127 
0:0:16:821, 2130 
0:0:16:837, 2128 
0:0:16:853, 2117 
0:0:16:868, 2099 
0:0:16:884, 2075 
0:0:16:899, 2054 
0:0:16:915, 2012 
0:0:16:931, 1989 
0:0:16:947, 1951 
0:0:16:962, 1931 
0:0:16:978, 1906 
0:0:16:993, 1891 
0:0:17:9, 1882 
0:0:17:25, 1870 
0:0:17:40, 1855 
0:0:17:56, 1850 
0:0:17:72, 1842 
0:0:17:88, 1838 
0:0:17:103, 1834 
0:0:17:118, 1830 
0:0:17:134, 1825 
0:0:17:149, 1820 
0:0:17:166, 1815 
0:0:17:181, 1811 
0:0:17:197, 1819 
0:0:17:212, 1864 
0:0:17:228, 1967 
0:0:17:244, 2148 
0:0:17:260, 2317 
0:0:17:275, 2413 
0:0:17:291, 2434 
0:0:17:307, 2410 
0:0:17:322, 2370 
0:0:17:337, 2320 
0:0:17:353, 2237 
0:0:17:369, 2180 
0:0:17:385, 2127 
0:0:17:400, 2102 
0:0:17:416, 2072 
0:0:17:431, 2046 
0:0:17:446, 2035 
0:0:17:461, 2037 
0:0:17:477, 2046 
0:0:17:492, 2064 
0:0:17:508, 2073 
0:0:17:523, 2079 
0:0:17:539, 2078 
0:0:17:554, 2067 
0:0:17:570, 2054 
0:0:17:585, 2025 
0:0:17:602, 1996 
0:0:17:618, 1964 
0:0:17:634, 1933 
0:0:17:649, 1910 
0:0:17:665, 1888 
0:0:17:680, 1873 
0:0:17:696, 1847 
0:0:17:711, 1831 
0:0:17:728, 1818 
0:0:17:743, 1809 
0:0:17:759, 1797 
0:0:17:774, 1790 
0:0:17:789, 1786 
0:0:17:804, 1777 
0:0:17:821, 1772 
0:0:17:837, 1767 
0:0:17:852, 1764 
0:0:17:868, 1761 
0:0:17:883, 1757 
0:0:17:898, 1753 
0:0:17:914, 1748 
0:0:17:930, 1743 
0:0:17:946, 1740 
0:0:17:961, 1740 
0:0:17:977, 1743 
0:0:17:994, 1759 
0:0:18:9, 1795 
0:0:18:25, 1855 
0:0:18:41, 1908 
0:0:18:56, 1937 
0:0:18:73, 2070 
0:0:18:88, 2137 
0:0:18:103, 2171 
0:0:18:119, 2263 
0:0:18:135, 2316 
0:0:18:150, 2388 
0:0:18:166, 2412 
0:0:18:181, 2429 
0:0:18:196, 2426 
0:0:18:212, 2415 
0:0:18:227, 2397 
0:0:18:243, 2375 
0:0:18:259, 2339 
0:0:18:274, 2311 
0:0:18:290, 2268 
0:0:18:306, 2222 
0:0:18:321, 2190 
0:0:18:338, 2144 
0:0:18:353, 2100 
0:0:18:369, 2062 
0:0:18:385, 2043 
0:0:18:400, 2027 
0:0:18:415, 2013 
0:0:18:430, 2010 
0:0:18:446, 2013 
0:0:18:462, 2019 
0:0:18:478, 2032 
0:0:18:493, 2049 
0:0:18:509, 2065 
0:0:18:525, 2076 
0:0:18:541, 2085 
0:0:18:556, 2082 
0:0:18:573, 2074 
0:0:18:588, 2060 
0:0:18:604, 2042 
0:0:18:620, 2027 
0:0:18:636, 1996 
0:0:18:652, 1956 
0:0:18:667, 1933 
0:0:18:683, 1905 
0:0:18:698, 1884 
0:0:18:713, 1858 
0:0:18:729, 1847 
0:0:18:745, 1827 
0:0:18:760, 1814 
0:0:18:776, 1802 
0:0:18:792, 1793 
0:0:18:808, 1786 
0:0:18:823, 1780 
0:0:18:839, 1775 
0:0:18:855, 1773 
0:0:18:871, 1772 
0:0:18:886, 1772 
0:0:18:902, 1771 
0:0:18:919, 1771 
0:0:18:935, 1772 
0:0:18:951, 1780 
0:0:18:966, 1810 
0:0:18:982, 1879 
0:0:18:997, 1957 
0:0:19:13, 2051 
0:0:19:29, 2117 
0:0:19:44, 2216 
0:0:19:59, 2303 
0:0:19:75, 2353 
0:0:19:91, 2423 
0:0:19:107, 2434 
0:0:19:122, 2452 
0:0:19:138, 2454 
0:0:19:153, 2446 
0:0:19:168, 2432 
0:0:19:184, 2402 
0:0:19:199, 2349 
0:0:19:215, 2334 
0:0:19:230, 2304 
0:0:19:246, 2256 
0:0:19:261, 2208 
0:0:19:277, 2177 
0:0:19:292, 2132 
0:0:19:308, 2093 
0:0:19:324, 2071 
0:0:19:339, 2054 
0:0:19:356, 2035 
0:0:19:371, 2034 
0:0:19:387, 2046 
0:0:19:402, 2062 
0:0:19:418, 2081 
0:0:19:433, 2098 
0:0:19:448, 2113 
0:0:19:463, 2122 
0:0:19:479, 2124 
0:0:19:495, 2118 
0:0:19:510, 2108 
0:0:19:526, 2093 
0:0:19:542, 2082 
0:0:19:558, 2065 
0:0:19:574, 2036 
0:0:19:590, 2022 
0:0:19:606, 1997 
0:0:19:622, 1965 
0:0:19:637, 1941 
0:0:19:652, 1919 
0:0:19:668, 1890 
0:0:19:684, 1878 
0:0:19:700, 1865 
0:0:19:715, 1842 
0:0:19:731, 1827 
0:0:19:747, 1815 
0:0:19:762, 1801 
0:0:19:777, 1787 
0:0:19:793, 1781 
0:0:19:809, 1780 
0:0:19:824, 1785 
0:0:19:840, 1805 
0:0:19:855, 1854 
0:0:19:870, 1941 
0:0:19:886, 2061 
0:0:19:901, 2194 
0:0:19:916, 2316 
0:0:19:932, 2366 
0:0:19:947, 2437 
0:0:19:962, 2473 
0:0:19:978, 2477 
0:0:19:993, 2472 
0:0:20:9, 2441 
0:0:20:24, 2406 
0:0:20:39, 2364 
0:0:20:56, 2317 
0:0:20:71, 2268 
0:0:20:86, 2235 
0:0:20:101, 2235 
0:0:20:116, 2219 
0:0:20:132, 2219 
0:0:20:148, 2202 
0:0:20:164, 2202 
0:0:20:179, 2185 
0:0:20:195, 2137 
0:0:20:211, 2096 
0:0:20:227, 2063 
0:0:20:242, 2046 
0:0:20:258, 2035 
0:0:20:274, 2029 
0:0:20:289, 2031 
0:0:20:304, 2047 
0:0:20:319, 2064 
0:0:20:334, 2076 
0:0:20:349, 2088 
0:0:20:365, 2103 
0:0:20:380, 2115 
0:0:20:396, 2118 
0:0:20:412, 2118 
0:0:20:427, 2111 
0:0:20:443, 2104 
0:0:20:459, 2090 
0:0:20:475, 2072 
0:0:20:491, 2051 
0:0:20:507, 2022 
0:0:20:522, 2000 
0:0:20:538, 1970 
0:0:20:553, 1956 
0:0:20:569, 1935 
0:0:20:585, 1915 
0:0:20:601, 1897 
0:0:20:616, 1874 
0:0:20:632, 1859 
0:0:20:648, 1847 
0:0:20:663, 1834 
0:0:20:679, 1827 
0:0:20:694, 1820 
0:0:20:710, 1810 
0:0:20:726, 1802 
0:0:20:742, 1798 
0:0:20:757, 1799 
0:0:20:773, 1805 
0:0:20:788, 1841 
0:0:20:804, 1895 
0:0:20:820, 1970 
0:0:20:835, 2093 
0:0:20:851, 2158 
0:0:20:867, 2280 
0:0:20:883, 2356 
0:0:20:898, 2423 
0:0:20:913, 2457 
0:0:20:928, 2462 
0:0:20:944, 2454 
0:0:20:959, 2423 
0:0:20:975, 2390 
0:0:20:990, 2351 
0:0:21:5, 2309 
0:0:21:21, 2250 
0:0:21:38, 2206 
0:0:21:53, 2177 
0:0:21:69, 2139 
0:0:21:84, 2109 
0:0:21:100, 2082 
0:0:21:116, 2075 
0:0:21:132, 2080 
0:0:21:148, 2093 
0:0:21:163, 2103 
0:0:21:179, 2119 
0:0:21:195, 2131 
0:0:21:211, 2144 
0:0:21:226, 2152 
0:0:21:242, 2156 
0:0:21:258, 2154 
0:0:21:274, 2145 
0:0:21:289, 2126 
0:0:21:305, 2109 
0:0:21:320, 2073 
0:0:21:336, 2050 
0:0:21:351, 2020 
0:0:21:366, 1992 
0:0:21:381, 1974 
0:0:21:397, 1957 
0:0:21:412, 1935 
0:0:21:428, 1915 
0:0:21:443, 1900 
0:0:21:459, 1883 
0:0:21:474, 1866 
0:0:21:490, 1852 
0:0:21:506, 1841 
0:0:21:521, 1835 
0:0:21:536, 1852 
0:0:21:552, 1888 
0:0:21:567, 1973 
0:0:21:582, 2058 
0:0:21:598, 2088 
0:0:21:614, 2214 
0:0:21:629, 2302 
0:0:21:645, 2376 
0:0:21:660, 2440 
0:0:21:676, 2471 
0:0:21:692, 2474 
0:0:21:707, 2463 
0:0:21:723, 2428 
0:0:21:739, 2406 
0:0:21:755, 2354 
0:0:21:770, 2279 
0:0:21:786, 2217 
0:0:21:800, 2171 
0:0:21:816, 2142 
0:0:21:832, 2085 
0:0:21:848, 2056 
0:0:21:863, 2054 
0:0:21:878, 2066 
0:0:21:894, 2079 
0:0:21:909, 2096 
0:0:21:925, 2106 
0:0:21:940, 2110 
0:0:21:956, 2102 
0:0:21:972, 2083 
0:0:21:988, 2052 
0:0:22:3, 2025 
0:0:22:19, 2011 
0:0:22:35, 1990 
0:0:22:50, 1969 
0:0:22:66, 1950 
0:0:22:82, 1930 
0:0:22:97, 1917 
0:0:22:113, 1886 
0:0:22:129, 1857 
0:0:22:145, 1837 
0:0:22:161, 1828 
0:0:22:177, 1814 
0:0:22:192, 1811 
0:0:22:208, 1838 
0:0:22:224, 1904 
0:0:22:239, 2012 
0:0:22:255, 2145 
0:0:22:271, 2308 
0:0:22:287, 2387 
0:0:22:302, 2457 
0:0:22:317, 2493 
0:0:22:333, 2496 
0:0:22:348, 2475 
0:0:22:364, 2445 
0:0:22:379, 2407 
0:0:22:394, 2350 
0:0:22:410, 2288 
0:0:22:426, 2240 
0:0:22:441, 2192 
0:0:22:456, 2148 
0:0:22:472, 2111 
0:0:22:487, 2083 
0:0:22:502, 2062 
0:0:22:518, 2059 
0:0:22:533, 2069 
0:0:22:548, 2086 
0:0:22:564, 2102 
0:0:22:580, 2112 
0:0:22:596, 2113 
0:0:22:612, 2105 
0:0:22:627, 2088 
0:0:22:643, 2071 
0:0:22:659, 2059 
0:0:22:675, 2030 
0:0:22:690, 2014 
0:0:22:706, 1991 
0:0:22:722, 1968 
0:0:22:738, 1925 
0:0:22:754, 1907 
0:0:22:770, 1883 
0:0:22:786, 1856 
0:0:22:802, 1842 
0:0:22:817, 1830 
0:0:22:833, 1822 
0:0:22:848, 1815 
0:0:22:864, 1814 
0:0:22:880, 1830 
0:0:22:896, 1850 
0:0:22:912, 1946 
0:0:22:927, 2060 
0:0:22:943, 2123 
0:0:22:959, 2184 
0:0:22:975, 2214 
0:0:22:990, 2214 
0:0:23:6, 2268 
0:0:23:22, 2316 
0:0:23:37, 2383 
0:0:23:54, 2413 
0:0:23:69, 2414 
0:0:23:85, 2404 
0:0:23:101, 2390 
0:0:23:116, 2372 
0:0:23:132, 2338 
0:0:23:148, 2300 
0:0:23:163, 2259 
0:0:23:178, 2231 
0:0:23:193, 2187 
0:0:23:209, 2143 
0:0:23:225, 2086 
0:0:23:240, 2052 
0:0:23:256, 2020 
0:0:23:272, 2010 
0:0:23:287, 2006 
0:0:23:303, 2005 
0:0:23:319, 2008 
0:0:23:334, 2013 
0:0:23:350, 2024 
0:0:23:366, 2035 
0:0:23:382, 2045 
0:0:23:397, 2052 
0:0:23:412, 2053 
0:0:23:428, 2051 
0:0:23:444, 2042 
0:0:23:460, 2030 
0:0:23:475, 2011 
0:0:23:490, 2000 
0:0:23:505, 1973 
0:0:23:521, 1952 
0:0:23:536, 1922 
0:0:23:552, 1900 
0:0:23:568, 1871 
0:0:23:583, 1851 
0:0:23:599, 1838 
0:0:23:614, 1820 
0:0:23:630, 1793 
0:0:23:646, 1778 
0:0:23:661, 1761 
0:0:23:677, 1750 
0:0:23:693, 1740 
0:0:23:709, 1736 
0:0:23:724, 1741 
0:0:23:739, 1772 
0:0:23:754, 1842 
0:0:23:769, 1950 
0:0:23:785, 2048 
0:0:23:801, 2178 
0:0:23:816, 2311 
0:0:23:831, 2383 
0:0:23:847, 2400 
0:0:23:862, 2394 
0:0:23:878, 2374 
0:0:23:893, 2356 
0:0:23:909, 2319 
0:0:23:924, 2281 
0:0:23:939, 2226 
0:0:23:954, 2184 
0:0:23:969, 2117 
0:0:23:985, 2094 
0:0:24:1, 2055 
0:0:24:16, 2029 
0:0:24:31, 2020 
0:0:24:47, 2024 
0:0:24:62, 2036 
0:0:24:77, 2052 
0:0:24:94, 2057 
0:0:24:110, 2059 
0:0:24:126, 2059 
0:0:24:141, 2060 
0:0:24:157, 2061 
0:0:24:172, 2060 
0:0:24:188, 2058 
0:0:24:203, 2049 
0:0:24:220, 2038 
0:0:24:235, 2023 
0:0:24:250, 1994 
0:0:24:266, 1969 
0:0:24:282, 1938 
0:0:24:297, 1918 
0:0:24:312, 1901 
0:0:24:327, 1885 
0:0:24:343, 1868 
0:0:24:359, 1856 
0:0:24:375, 1838 
0:0:24:393, 1829 
0:0:24:406, 1822 
0:0:24:422, 1814 
0:0:24:437, 1809 
0:0:24:452, 1807 
0:0:24:468, 1801 
0:0:24:484, 1798 
0:0:24:500, 1796 
0:0:24:515, 1800 
0:0:24:531, 1822 
0:0:24:546, 1877 
0:0:24:561, 1918 
0:0:24:577, 2021 
0:0:24:593, 2109 
0:0:24:609, 2167 
0:0:24:625, 2272 
0:0:24:640, 2340 
0:0:24:656, 2379 
0:0:24:671, 2394 
0:0:24:687, 2380 
0:0:24:704, 2357 
0:0:24:720, 2317 
0:0:24:736, 2272 
0:0:24:751, 2236 
0:0:24:767, 2188 
0:0:24:783, 2142 
0:0:24:798, 2093 
0:0:24:813, 2079 
0:0:24:828, 2060 
0:0:24:844, 2056 
0:0:24:859, 2063 
0:0:24:875, 2068 
0:0:24:890, 2078 
0:0:24:905, 2085 
0:0:24:920, 2091 
0:0:24:935, 2089 
0:0:24:952, 2078 
0:0:24:967, 2066 
0:0:24:983, 2038 
0:0:24:999, 2005 
0:0:25:14, 1984 
0:0:25:29, 1950 
0:0:25:44, 1925 
0:0:25:60, 1902 
0:0:25:75, 1892 
0:0:25:91, 1878 
0:0:25:107, 1869 
0:0:25:123, 1860 
0:0:25:139, 1845 
0:0:25:155, 1833 
0:0:25:171, 1819 
0:0:25:187, 1809 
0:0:25:203, 1802 
0:0:25:218, 1788 
0:0:25:234, 1778 
0:0:25:249, 1769 
0:0:25:264, 1770 
0:0:25:280, 1786 
0:0:25:295, 1818 
0:0:25:310, 1894 
0:0:25:325, 1999 
0:0:25:341, 2143 
0:0:25:357, 2288 
0:0:25:372, 2343 
0:0:25:387, 2343 
0:0:25:403, 2310 
0:0:25:418, 2274 
0:0:25:433, 2234 
0:0:25:449, 2191 
0:0:25:465, 2157 
0:0:25:481, 2123 
0:0:25:497, 2092 
0:0:25:512, 2066 
0:0:25:527, 2042 
0:0:25:542, 2031 
0:0:25:559, 2032 
0:0:25:575, 2039 
0:0:25:590, 2043 
0:0:25:605, 2048 
0:0:25:621, 2055 
0:0:25:638, 2051 
0:0:25:654, 2039 
0:0:25:669, 2026 
0:0:25:684, 2005 
0:0:25:700, 1981 
0:0:25:715, 1955 
0:0:25:730, 1942 
0:0:25:745, 1929 
0:0:25:761, 1900 
0:0:25:777, 1878 
0:0:25:793, 1855 
0:0:25:809, 1837 
0:0:25:825, 1819 
0:0:25:840, 1807 
0:0:25:855, 1795 
0:0:25:870, 1792 
0:0:25:886, 1786 
0:0:25:902, 1780 
0:0:25:918, 1775 
0:0:25:933, 1772 
0:0:25:949, 1770 
0:0:25:964, 1768 
0:0:25:980, 1764 
0:0:25:995, 1760 
0:0:26:11, 1754 
0:0:26:26, 1752 
0:0:26:42, 1755 
0:0:26:58, 1769 
0:0:26:74, 1815 
0:0:26:90, 1874 
0:0:26:106, 1923 
0:0:26:121, 2063 
0:0:26:137, 2145 
0:0:26:152, 2217 
0:0:26:168, 2305 
0:0:26:184, 2326 
0:0:26:200, 2323 
0:0:26:215, 2302 
0:0:26:231, 2271 
0:0:26:247, 2254 
0:0:26:263, 2227 
0:0:26:278, 2198 
0:0:26:293, 2158 
0:0:26:308, 2117 
0:0:26:324, 2081 
0:0:26:340, 2053 
0:0:26:356, 2043 
0:0:26:371, 2038 
0:0:26:387, 2042 
0:0:26:403, 2050 
0:0:26:419, 2055 
0:0:26:434, 2051 
0:0:26:449, 2038 
0:0:26:465, 2006 
0:0:26:480, 1978 
0:0:26:495, 1958 
0:0:26:511, 1932 
0:0:26:527, 1899 
0:0:26:542, 1875 
0:0:26:557, 1845 
0:0:26:573, 1823 
0:0:26:588, 1805 
0:0:26:603, 1793 
0:0:26:619, 1780 
0:0:26:634, 1770 
0:0:26:650, 1759 
0:0:26:665, 1754 
0:0:26:681, 1750 
0:0:26:697, 1745 
0:0:26:712, 1738 
0:0:26:728, 1726 
0:0:26:744, 1707 
0:0:26:760, 1698 
0:0:26:776, 1686 
0:0:26:792, 1697 
0:0:26:807, 1761 
0:0:26:822, 1886 
0:0:26:837, 2011 
0:0:26:853, 2163 
0:0:26:868, 2288 
0:0:26:884, 2337 
0:0:26:900, 2341 
0:0:26:916, 2316 
0:0:26:931, 2285 
0:0:26:946, 2241 
0:0:26:962, 2212 
0:0:26:977, 2182 
0:0:26:993, 2134 
0:0:27:8, 2093 
0:0:27:24, 2070 
0:0:27:40, 2059 
0:0:27:55, 2060 
0:0:27:71, 2066 
0:0:27:86, 2069 
0:0:27:102, 2074 
0:0:27:117, 2079 
0:0:27:132, 2082 
0:0:27:148, 2082 
0:0:27:164, 2077 
0:0:27:180, 2068 
0:0:27:195, 2057 
0:0:27:210, 2042 
0:0:27:226, 2037 
0:0:27:241, 2013 
0:0:27:257, 1994 
0:0:27:272, 1974 
0:0:27:289, 1955 
0:0:27:304, 1936 
0:0:27:320, 1918 
0:0:27:335, 1900 
0:0:27:351, 1880 
0:0:27:366, 1870 
0:0:27:382, 1860 
0:0:27:397, 1846 
0:0:27:413, 1837 
0:0:27:428, 1822 
0:0:27:444, 1812 
0:0:27:460, 1804 
0:0:27:475, 1800 
0:0:27:491, 1794 
0:0:27:507, 1790 
0:0:27:523, 1787 
0:0:27:539, 1784 
0:0:27:554, 1782 
0:0:27:569, 1779 
0:0:27:585, 1776 
0:0:27:601, 1773 
0:0:27:617, 1772 
0:0:27:633, 1766 
0:0:27:647, 1760 
0:0:27:663, 1756 
0:0:27:679, 1747 
0:0:27:694, 1740 
0:0:27:710, 1730 
0:0:27:726, 1718 
0:0:27:741, 1716 
0:0:27:757, 1743 
0:0:27:772, 1828 
0:0:27:788, 1938 
0:0:27:803, 2031 
0:0:27:818, 2125 
0:0:27:834, 2233 
0:0:27:850, 2320 
0:0:27:865, 2355 
0:0:27:881, 2359 
0:0:27:896, 2218 
0:0:27:912, 2175 
0:0:27:927, 2132 
0:0:27:943, 2093 
0:0:27:959, 2062 
0:0:27:975, 2053 
0:0:27:991, 2059 
0:0:28:7, 2071 
0:0:28:22, 2080 
0:0:28:39, 2088 
0:0:28:54, 2089 
0:0:28:69, 2083 
0:0:28:84, 2070 
0:0:28:100, 2055 
0:0:28:116, 2032 
0:0:28:132, 2006 
0:0:28:148, 1972 
0:0:28:164, 1947 
0:0:28:180, 1916 
0:0:28:196, 1894 
0:0:28:211, 1879 
0:0:28:226, 1867 
0:0:28:241, 1851 
0:0:28:257, 1838 
0:0:28:272, 1829 
0:0:28:287, 1819 
0:0:28:303, 1814 
0:0:28:319, 1810 
0:0:28:335, 1807 
0:0:28:350, 1805 
0:0:28:365, 1802 
0:0:28:381, 1794 
0:0:28:397, 1787 
0:0:28:413, 1784 
0:0:28:429, 1777 
0:0:28:444, 1770 
0:0:28:461, 1759 
0:0:28:476, 1752 
0:0:28:491, 1743 
0:0:28:507, 1744 
0:0:28:523, 1751 
0:0:28:538, 1757 
0:0:28:553, 1804 
0:0:28:568, 1921 
0:0:28:583, 2113 
0:0:28:599, 2262 
0:0:28:615, 2383 
0:0:28:631, 2404 
0:0:28:646, 2391 
0:0:28:662, 2351 
0:0:28:678, 2287 
0:0:28:693, 2217 
0:0:28:709, 2147 
0:0:28:725, 2106 
0:0:28:741, 2071 
0:0:28:757, 2058 
0:0:28:773, 2062 
0:0:28:788, 2078 
0:0:28:803, 2092 
0:0:28:819, 2096 
0:0:28:835, 2085 
0:0:28:851, 2068 
0:0:28:867, 2038 
0:0:28:883, 1998 
0:0:28:899, 1963 
0:0:28:915, 1929 
0:0:28:930, 1904 
0:0:28:946, 1876 
0:0:28:961, 1852 
0:0:28:977, 1833 
0:0:28:993, 1820 
0:0:29:8, 1812 
0:0:29:24, 1803 
0:0:29:40, 1796 
0:0:29:56, 1792 
0:0:29:72, 1789 
0:0:29:88, 1785 
0:0:29:104, 1780 
0:0:29:120, 1774 
0:0:29:135, 1767 
0:0:29:151, 1760 
0:0:29:167, 1752 
0:0:29:183, 1741 
0:0:29:199, 1731 
0:0:29:215, 1722 
0:0:29:231, 1714 
0:0:29:246, 1713 
0:0:29:261, 1720 
0:0:29:276, 1744 
0:0:29:291, 1836 
0:0:29:307, 2027 
0:0:29:323, 2173 
0:0:29:338, 2333 
0:0:29:353, 2447 
0:0:29:369, 2478 
0:0:29:385, 2460 
0:0:29:401, 2403 
0:0:29:417, 2330 
0:0:29:433, 2251 
0:0:29:449, 2172 
0:0:29:465, 2110 
0:0:29:480, 2090 
0:0:29:495, 2076 
0:0:29:511, 2075 
0:0:29:527, 2083 
0:0:29:543, 2098 
0:0:29:558, 2101 
0:0:29:573, 2101 
0:0:29:589, 2094 
0:0:29:604, 2078 
0:0:29:619, 2048 
0:0:29:635, 2011 
0:0:29:651, 1955 
0:0:29:667, 1917 
0:0:29:683, 1890 
0:0:29:699, 1867 
0:0:29:714, 1845 
0:0:29:730, 1829 
0:0:29:745, 1820 
0:0:29:760, 1814 
0:0:29:775, 1803 
0:0:29:791, 1789 
0:0:29:806, 1780 
0:0:29:821, 1770 
0:0:29:837, 1762 
0:0:29:852, 1758 
0:0:29:868, 1755 
0:0:29:883, 1754 
0:0:29:898, 1752 
0:0:29:914, 1750 
0:0:29:929, 1745 
0:0:29:945, 1737 
0:0:29:961, 1725 
0:0:29:977, 1714 
0:0:29:992, 1719 
0:0:30:8, 1797 
0:0:30:23, 1937 
0:0:30:39, 2145 
0:0:30:54, 2271 
0:0:30:69, 2393 
0:0:30:85, 2431 
0:0:30:101, 2436 
0:0:30:116, 2424 
0:0:30:132, 2390 
0:0:30:148, 2344 
0:0:30:163, 2292 
0:0:30:179, 2210 
0:0:30:195, 2152 
0:0:30:210, 2089 
0:0:30:226, 2043 
0:0:30:241, 2023 
0:0:30:256, 2018 
0:0:30:272, 2022 
0:0:30:288, 1986 
0:0:30:303, 1942 
0:0:30:318, 1912 
0:0:30:334, 1867 
0:0:30:350, 1832 
0:0:30:366, 1795 
0:0:30:382, 1769 
0:0:30:398, 1743 
0:0:30:414, 1726 
0:0:30:430, 1716 
0:0:30:445, 1712 
0:0:30:461, 1709 
0:0:30:477, 1704 
0:0:30:492, 1700 
0:0:30:508, 1697 
0:0:30:524, 1694 
0:0:30:540, 1695 
0:0:30:555, 1701 
0:0:30:570, 1712 
0:0:30:586, 1746 
0:0:30:602, 1856 
0:0:30:618, 2017 
0:0:30:634, 2121 
0:0:30:650, 2246 
0:0:30:665, 2369 
0:0:30:680, 2409 
0:0:30:696, 2403 
0:0:30:712, 2373 
0:0:30:727, 2341 
0:0:30:743, 2305 
0:0:30:758, 2252 
0:0:30:774, 2196 
0:0:30:790, 2126 
0:0:30:806, 2065 
0:0:30:821, 2037 
0:0:30:837, 2017 
0:0:30:852, 2009 
0:0:30:868, 2020 
0:0:30:883, 2034 
0:0:30:898, 2055 
0:0:30:914, 2077 
0:0:30:929, 2084 
0:0:30:945, 2085 
0:0:30:961, 2073 
0:0:30:977, 2050 
0:0:30:992, 2026 
0:0:31:8, 1992 
0:0:31:24, 1948 
0:0:31:40, 1906 
0:0:31:56, 1881 
0:0:31:72, 1864 
0:0:31:88, 1854 
0:0:31:104, 1832 
0:0:31:119, 1815 
0:0:31:135, 1803 
0:0:31:150, 1794 
0:0:31:166, 1789 
0:0:31:181, 1786 
0:0:31:197, 1782 
0:0:31:213, 1777 
0:0:31:229, 1773 
0:0:31:245, 1794 
0:0:31:261, 1830 
0:0:31:277, 1942 
0:0:31:293, 2100 
0:0:31:308, 2262 
0:0:31:323, 2365 
0:0:31:339, 2431 
0:0:31:354, 2465 
0:0:31:370, 2448 
0:0:31:386, 2402 
0:0:31:402, 2341 
0:0:31:418, 2258 
0:0:31:434, 2214 
0:0:31:449, 2172 
0:0:31:465, 2133 
0:0:31:481, 2111 
0:0:31:497, 2092 
0:0:31:513, 2074 
0:0:31:528, 2063 
0:0:31:543, 2075 
0:0:31:559, 2094 
0:0:31:574, 2104 
0:0:31:590, 2112 
0:0:31:606, 2122 
0:0:31:622, 2127 
0:0:31:638, 2126 
0:0:31:653, 2115 
0:0:31:669, 2098 
0:0:31:685, 2069 
0:0:31:700, 2043 
0:0:31:715, 2016 
0:0:31:731, 1995 
0:0:31:746, 1981 
0:0:31:762, 1960 
0:0:31:777, 1947 
0:0:31:793, 1921 
0:0:31:809, 1904 
0:0:31:824, 1879 
0:0:31:839, 1866 
0:0:31:855, 1854 
0:0:31:871, 1840 
0:0:31:886, 1832 
0:0:31:902, 1822 
0:0:31:917, 1814 
0:0:31:933, 1805 
0:0:31:948, 1801 
0:0:31:964, 1801 
0:0:31:979, 1811 
0:0:31:995, 1836 
0:0:32:10, 1901 
0:0:32:26, 1947 
0:0:32:41, 2063 
0:0:32:57, 2192 
0:0:32:73, 2311 
0:0:32:89, 2361 
0:0:32:105, 2431 
0:0:32:120, 2462 
0:0:32:135, 2472 
0:0:32:151, 2465 
0:0:32:167, 2444 
0:0:32:183, 2425 
0:0:32:199, 2377 
0:0:32:214, 2336 
0:0:32:229, 2307 
0:0:32:244, 2261 
0:0:32:260, 2201 
0:0:32:276, 2158 
0:0:32:291, 2108 
0:0:32:307, 2087 
0:0:32:322, 2058 
0:0:32:339, 2049 
0:0:32:354, 2046 
0:0:32:369, 2051 
0:0:32:385, 2057 
0:0:32:401, 2071 
0:0:32:417, 2084 
0:0:32:433, 2101 
0:0:32:448, 2111 
0:0:32:464, 2108 
0:0:32:479, 2090 
0:0:32:495, 2067 
0:0:32:511, 2035 
0:0:32:527, 2014 
0:0:32:543, 1985 
0:0:32:558, 1952 
0:0:32:573, 1933 
0:0:32:589, 1915 
0:0:32:605, 1896 
0:0:32:621, 1875 
0:0:32:637, 1857 
0:0:32:652, 1842 
0:0:32:668, 1832 
0:0:32:684, 1819 
0:0:32:699, 1809 
0:0:32:714, 1803 
0:0:32:729, 1800 
0:0:32:745, 1806 
0:0:32:761, 1827 
0:0:32:777, 1899 
0:0:32:792, 2000 
0:0:32:808, 2094 
0:0:32:823, 2225 
0:0:32:838, 2343 
0:0:32:853, 2442 
0:0:32:869, 2490 
0:0:32:885, 2480 
0:0:32:900, 2436 
0:0:32:915, 2373 
0:0:32:930, 2297 
0:0:32:946, 2237 
0:0:32:962, 2154 
0:0:32:978, 2109 
0:0:32:993, 2079 
0:0:33:8, 2069 
0:0:33:24, 2068 
0:0:33:40, 2074 
0:0:33:56, 2090 
0:0:33:71, 2107 
0:0:33:87, 2117 
0:0:33:102, 2121 
0:0:33:118, 2124 
0:0:33:133, 2122 
0:0:33:149, 2111 
0:0:33:165, 2094 
0:0:33:180, 2063 
0:0:33:195, 2027 
0:0:33:211, 1991 
0:0:33:226, 1969 
0:0:33:241, 1943 
0:0:33:256, 1918 
0:0:33:271, 1902 
0:0:33:287, 1883 
0:0:33:302, 1867 
0:0:33:318, 1854 
0:0:33:333, 1846 
0:0:33:350, 1834 
0:0:33:365, 1825 
0:0:33:381, 1819 
0:0:33:397, 1815 
0:0:33:412, 1818 
0:0:33:427, 1859 
0:0:33:442, 1932 
0:0:33:458, 2106 
0:0:33:473, 2299 
0:0:33:489, 2428 
0:0:33:505, 2488 
0:0:33:520, 2479 
0:0:33:535, 2425 
0:0:33:551, 2363 
0:0:33:567, 2293 
0:0:33:582, 2235 
0:0:33:597, 2180 
0:0:33:613, 2122 
0:0:33:629, 2090 
0:0:33:645, 2083 
0:0:33:661, 2085 
0:0:33:676, 2095 
0:0:33:692, 2113 
0:0:33:707, 2131 
0:0:33:722, 2139 
0:0:33:737, 2142 
0:0:33:753, 2135 
0:0:33:769, 2113 
0:0:33:784, 2083 
0:0:33:799, 2055 
0:0:33:815, 2018 
0:0:33:830, 1990 
0:0:33:846, 1990 
0:0:33:861, 1968 
0:0:33:877, 1948 
0:0:33:892, 1930 
0:0:33:907, 1907 
0:0:33:923, 1881 
0:0:33:938, 1869 
0:0:33:954, 1854 
0:0:33:970, 1843 
0:0:33:985, 1833 
0:0:34:1, 1826 
0:0:34:17, 1821 
0:0:34:32, 1818 
0:0:34:48, 1816 
0:0:34:64, 1821 
0:0:34:80, 1845 
0:0:34:95, 1904 
0:0:34:111, 2061 
0:0:34:126, 2222 
0:0:34:141, 2363 
0:0:34:157, 2449 
0:0:34:173, 2480 
0:0:34:189, 2470 
0:0:34:205, 2425 
0:0:34:221, 2363 
0:0:34:236, 2308 
0:0:34:252, 2250 
0:0:34:267, 2208 
0:0:34:284, 2181 
0:0:34:299, 2143 
0:0:34:314, 2113 
0:0:34:330, 2086 
0:0:34:346, 2077 
0:0:34:362, 2078 
0:0:34:377, 2085 
0:0:34:393, 2101 
0:0:34:409, 2119 
0:0:34:425, 2130 
0:0:34:441, 2133 
0:0:34:457, 2129 
0:0:34:473, 2120 
0:0:34:489, 2107 
0:0:34:506, 2089 
0:0:34:521, 2076 
0:0:34:537, 2055 
0:0:34:552, 2041 
0:0:34:568, 2011 
0:0:34:584, 1998 
0:0:34:599, 1970 
0:0:34:615, 1951 
0:0:34:631, 1933 
0:0:34:647, 1912 
0:0:34:663, 1888 
0:0:34:679, 1880 
0:0:34:694, 1874 
0:0:34:709, 1866 
0:0:34:725, 1860 
0:0:34:740, 1854 
0:0:34:756, 1852 
0:0:34:772, 1849 
0:0:34:787, 1845 
0:0:34:803, 1843 
0:0:34:818, 1841 
0:0:34:834, 1840 
0:0:34:849, 1845 
0:0:34:864, 1857 
0:0:34:879, 1883 
0:0:34:895, 1949 
0:0:34:911, 2049 
0:0:34:926, 2139 
0:0:34:942, 2232 
0:0:34:957, 2290 
0:0:34:973, 2366 
0:0:34:989, 2437 
0:0:35:5, 2472 
0:0:35:20, 2472 
0:0:35:36, 2443 
0:0:35:51, 2410 
0:0:35:66, 2371 
0:0:35:83, 2328 
0:0:35:98, 2284 
0:0:35:114, 2239 
0:0:35:129, 2209 
0:0:35:144, 2166 
0:0:35:160, 2115 
0:0:35:175, 2072 
0:0:35:190, 2059 
0:0:35:206, 2063 
0:0:35:222, 2086 
0:0:35:238, 2105 
0:0:35:253, 2122 
0:0:35:269, 2122 
0:0:35:284, 2117 
0:0:35:299, 2101 
0:0:35:315, 2090 
0:0:35:330, 2071 
0:0:35:346, 2043 
0:0:35:362, 2016 
0:0:35:378, 1987 
0:0:35:393, 1966 
0:0:35:409, 1946 
0:0:35:425, 1916 
0:0:35:440, 1894 
0:0:35:456, 1882 
0:0:35:472, 1865 
0:0:35:487, 1859 
0:0:35:502, 1853 
0:0:35:518, 1847 
0:0:35:534, 1837 
0:0:35:550, 1833 
0:0:35:565, 1830 
0:0:35:581, 1828 
0:0:35:597, 1826 
0:0:35:612, 1823 
0:0:35:628, 1820 
0:0:35:643, 1818 
0:0:35:658, 1819 
0:0:35:674, 1830 
0:0:35:689, 1872 
0:0:35:704, 1928 
0:0:35:720, 2035 
0:0:35:735, 2164 
0:0:35:751, 2319 
0:0:35:767, 2394 
0:0:35:782, 2444 
0:0:35:797, 2478 
0:0:35:813, 2489 
0:0:35:828, 2476 
0:0:35:843, 2441 
0:0:35:859, 2392 
0:0:35:875, 2338 
0:0:35:891, 2282 
0:0:35:906, 2238 
0:0:35:922, 2181 
0:0:35:937, 2121 
0:0:35:953, 2096 
0:0:35:969, 2079 
0:0:35:984, 2076 
0:0:36:0, 2079 
0:0:36:16, 2086 
0:0:36:32, 2097 
0:0:36:47, 2115 
0:0:36:62, 2122 
0:0:36:78, 2131 
0:0:36:94, 2130 
0:0:36:110, 2118 
0:0:36:126, 2098 
0:0:36:142, 2073 
0:0:36:157, 2053 
0:0:36:173, 2031 
0:0:36:188, 2001 
0:0:36:204, 1972 
0:0:36:219, 1944 
0:0:36:234, 1912 
0:0:36:250, 1880 
0:0:36:266, 1865 
0:0:36:282, 1855 
0:0:36:298, 1848 
0:0:36:313, 1843 
0:0:36:328, 1838 
0:0:36:343, 1834 
0:0:36:359, 1831 
0:0:36:374, 1829 
0:0:36:390, 1827 
0:0:36:406, 1826 
0:0:36:422, 1823 
0:0:36:437, 1820 
0:0:36:452, 1820 
0:0:36:467, 1832 
0:0:36:482, 1859 
0:0:36:497, 1931 
0:0:36:513, 2075 
0:0:36:529, 2210 
0:0:36:544, 2336 
0:0:36:561, 2464 
0:0:36:577, 2509 
0:0:36:592, 2511 
0:0:36:607, 2493 
0:0:36:622, 2465 
0:0:36:637, 2429 
0:0:36:653, 2376 
0:0:36:668, 2333 
0:0:36:684, 2260 
0:0:36:699, 2204 
0:0:36:715, 2145 
0:0:36:730, 2113 
0:0:36:746, 2097 
0:0:36:762, 2104 
0:0:36:777, 2125 
0:0:36:793, 2138 
0:0:36:809, 2146 
0:0:36:825, 2144 
0:0:36:840, 2140 
0:0:36:856, 2130 
0:0:36:872, 2107 
0:0:36:887, 2080 
0:0:36:902, 2048 
0:0:36:918, 2016 
0:0:36:933, 1986 
0:0:36:949, 1957 
0:0:36:965, 1931 
0:0:36:980, 1903 
0:0:36:996, 1889 
0:0:37:12, 1876 
0:0:37:26, 1873 
0:0:37:41, 1864 
0:0:37:57, 1856 
0:0:37:72, 1850 
0:0:37:88, 1845 
0:0:37:104, 1842 
0:0:37:119, 1840 
0:0:37:134, 1838 
0:0:37:150, 1836 
0:0:37:165, 1834 
0:0:37:181, 1832 
0:0:37:196, 1830 
0:0:37:211, 1825 
0:0:37:227, 1822 
0:0:37:242, 1818 
0:0:37:258, 1815 
0:0:37:273, 1813 
0:0:37:289, 1828 
0:0:37:304, 1874 
0:0:37:319, 1991 
0:0:37:334, 2087 
0:0:37:349, 2257 
0:0:37:364, 2373 
0:0:37:379, 2468 
0:0:37:395, 2504 
0:0:37:410, 2504 
0:0:37:426, 2488 
0:0:37:441, 2459 
0:0:37:456, 2410 
0:0:37:471, 2370 
0:0:37:487, 2313 
0:0:37:504, 2257 
0:0:37:520, 2229 
0:0:37:535, 2202 
0:0:37:550, 2189 
0:0:37:565, 2142 
0:0:37:580, 2109 
0:0:37:595, 2093 
0:0:37:610, 2092 
0:0:37:626, 2094 
0:0:37:642, 2103 
0:0:37:657, 2119 
0:0:37:673, 2130 
0:0:37:689, 2138 
0:0:37:704, 2136 
0:0:37:720, 2125 
0:0:37:735, 2106 
0:0:37:750, 2074 
0:0:37:765, 2053 
0:0:37:781, 2030 
0:0:37:796, 1999 
0:0:37:812, 1977 
0:0:37:828, 1949 
0:0:37:843, 1930 
0:0:37:859, 1917 
0:0:37:875, 1895 
0:0:37:891, 1881 
0:0:37:907, 1870 
0:0:37:923, 1858 
0:0:37:938, 1846 
0:0:37:954, 1839 
0:0:37:970, 1834 
0:0:37:985, 1832 
0:0:38:1, 1828 
0:0:38:17, 1826 
0:0:38:33, 1822 
0:0:38:48, 1818 
0:0:38:65, 1813 
0:0:38:81, 1815 
0:0:38:96, 1822 
0:0:38:112, 1845 
0:0:38:128, 1912 
0:0:38:143, 1987 
0:0:38:159, 2111 
0:0:38:174, 2210 
0:0:38:190, 2330 
0:0:38:206, 2412 
0:0:38:221, 2462 
0:0:38:237, 2484 
0:0:38:253, 2483 
0:0:38:269, 2464 
0:0:38:284, 2425 
0:0:38:299, 2388 
0:0:38:314, 2347 
0:0:38:330, 2302 
0:0:38:345, 2259 
0:0:38:360, 2201 
0:0:38:376, 2161 
0:0:38:392, 2128 
0:0:38:407, 2104 
0:0:38:423, 2093 
0:0:38:438, 2086 
0:0:38:454, 2092 
0:0:38:470, 2103 
0:0:38:485, 2114 
0:0:38:501, 2129 
0:0:38:516, 2136 
0:0:38:531, 2137 
0:0:38:548, 2133 
0:0:38:563, 2131 
0:0:38:579, 2114 
0:0:38:595, 2104 
0:0:38:610, 2085 
0:0:38:626, 2058 
0:0:38:642, 2027 
0:0:38:658, 1989 
0:0:38:674, 1968 
0:0:38:689, 1953 
0:0:38:705, 1919 
0:0:38:721, 1901 
0:0:38:736, 1881 
0:0:38:752, 1869 
0:0:38:767, 1858 
0:0:38:782, 1847 
0:0:38:797, 1843 
0:0:38:813, 1835 
0:0:38:828, 1831 
0:0:38:843, 1828 
0:0:38:858, 1825 
0:0:38:873, 1823 
0:0:38:889, 1820 
0:0:38:905, 1817 
0:0:38:921, 1813 
0:0:38:936, 1812 
0:0:38:951, 1809 
0:0:38:967, 1811 
0:0:38:983, 1830 
0:0:38:999, 1866 
0:0:39:14, 1925 
0:0:39:30, 2006 
0:0:39:46, 2101 
0:0:39:61, 2199 
0:0:39:77, 2317 
0:0:39:93, 2366 
0:0:39:108, 2414 
0:0:39:124, 2452 
0:0:39:140, 2465 
0:0:39:155, 2446 
0:0:39:170, 2417 
0:0:39:186, 2369 
0:0:39:201, 2301 
0:0:39:217, 2202 
0:0:39:232, 2146 
0:0:39:248, 2088 
0:0:39:264, 2057 
0:0:39:279, 2053 
0:0:39:295, 2073 
0:0:39:310, 2090 
0:0:39:325, 2103 
0:0:39:341, 2108 
0:0:39:357, 2104 
0:0:39:373, 2090 
0:0:39:388, 2069 
0:0:39:403, 2042 
0:0:39:418, 2013 
0:0:39:433, 1991 
0:0:39:449, 1962 
0:0:39:464, 1934 
0:0:39:480, 1914 
0:0:39:495, 1895 
0:0:39:511, 1878 
0:0:39:527, 1868 
0:0:39:543, 1858 
0:0:39:558, 1849 
0:0:39:574, 1841 
0:0:39:589, 1835 
0:0:39:605, 1830 
0:0:39:620, 1823 
0:0:39:636, 1818 
0:0:39:651, 1814 
0:0:39:667, 1812 
0:0:39:683, 1809 
0:0:39:698, 1808 
0:0:39:714, 1805 
0:0:39:729, 1802 
0:0:39:745, 1798 
0:0:39:760, 1793 
0:0:39:776, 1793 
0:0:39:791, 1801 
0:0:39:807, 1857 
0:0:39:822, 1923 
0:0:39:838, 2043 
0:0:39:854, 2179 
0:0:39:870, 2277 
0:0:39:886, 2385 
0:0:39:902, 2464 
0:0:39:918, 2486 
0:0:39:933, 2487 
0:0:39:949, 2470 
0:0:39:964, 2442 
0:0:39:980, 2407 
0:0:39:996, 2380 
0:0:40:13, 2327 
0:0:40:28, 2270 
0:0:40:44, 2228 
0:0:40:59, 2186 
0:0:40:75, 2160 
0:0:40:90, 2125 
0:0:40:106, 2105 
0:0:40:121, 2084 
0:0:40:137, 2070 
0:0:40:153, 2070 
0:0:40:169, 2080 
0:0:40:185, 2087 
0:0:40:200, 2098 
0:0:40:215, 2108 
0:0:40:230, 2115 
0:0:40:245, 2112 
0:0:40:261, 2106 
0:0:40:277, 2094 
0:0:40:292, 2078 
0:0:40:307, 2051 
0:0:40:322, 2022 
0:0:40:338, 1993 
0:0:40:354, 1986 
0:0:40:369, 1972 
0:0:40:385, 1951 
0:0:40:400, 1932 
0:0:40:416, 1909 
0:0:40:431, 1889 
0:0:40:446, 1877 
0:0:40:462, 1870 
0:0:40:477, 1861 
0:0:40:493, 1851 
0:0:40:508, 1845 
0:0:40:524, 1838 
0:0:40:539, 1833 
0:0:40:555, 1829 
0:0:40:570, 1828 
0:0:40:586, 1826 
0:0:40:602, 1824 
0:0:40:618, 1820 
0:0:40:634, 1815 
0:0:40:649, 1807 
0:0:40:665, 1804 
0:0:40:680, 1799 
0:0:40:695, 1796 
0:0:40:711, 1809 
0:0:40:727, 1840 
0:0:40:743, 1916 
0:0:40:758, 2032 
0:0:40:774, 2170 
0:0:40:790, 2273 
0:0:40:805, 2364 
0:0:40:820, 2481 
0:0:40:836, 2505 
0:0:40:852, 2155 
0:0:40:868, 2082 
0:0:40:883, 2090 
0:0:40:898, 2094 
0:0:40:914, 2095 
0:0:40:930, 2089 
0:0:40:946, 2077 
0:0:40:961, 2054 
0:0:40:976, 2024 
0:0:40:992, 1999 
0:0:41:7, 1972 
0:0:41:22, 1926 
0:0:41:38, 1881 
0:0:41:54, 1848 
0:0:41:70, 1816 
0:0:41:86, 1780 
0:0:41:102, 1761 
0:0:41:118, 1742 
0:0:41:134, 1731 
0:0:41:150, 1720 
0:0:41:165, 1712 
0:0:41:181, 1709 
0:0:41:197, 1707 
0:0:41:212, 1704 
0:0:41:227, 1702 
0:0:41:243, 1700 
0:0:41:258, 1695 
0:0:41:274, 1688 
0:0:41:290, 1683 
0:0:41:305, 1681 
0:0:41:320, 1695 
0:0:41:336, 1726 
0:0:41:352, 1808 
0:0:41:368, 1931 
0:0:41:383, 2003 
0:0:41:398, 2112 
0:0:41:414, 2216 
0:0:41:430, 2304 
0:0:41:446, 2383 
0:0:41:462, 2427 
0:0:41:477, 2434 
0:0:41:492, 2420 
0:0:41:507, 2385 
0:0:41:523, 2364 
0:0:41:539, 2340 
0:0:41:555, 2301 
0:0:41:570, 2259 
0:0:41:586, 2215 
0:0:41:601, 2170 
0:0:41:617, 2125 
0:0:41:633, 2084 
0:0:41:648, 2052 
0:0:41:664, 2020 
0:0:41:680, 2009 
0:0:41:696, 2011 
0:0:41:712, 2021 
0:0:41:728, 2035 
0:0:41:744, 2044 
0:0:41:760, 2047 
0:0:41:775, 2047 
0:0:41:791, 2038 
0:0:41:807, 2018 
0:0:41:822, 1994 
0:0:41:837, 1973 
0:0:41:852, 1943 
0:0:41:868, 1914 
0:0:41:884, 1900 
0:0:41:899, 1873 
0:0:41:914, 1854 
0:0:41:930, 1819 
0:0:41:946, 1804 
0:0:41:962, 1788 
0:0:41:977, 1772 
0:0:41:993, 1759 
0:0:42:8, 1753 
0:0:42:23, 1752 
0:0:42:39, 1752 
0:0:42:55, 1752 
0:0:42:71, 1751 
0:0:42:87, 1751 
0:0:42:102, 1768 
0:0:42:117, 1837 
0:0:42:133, 1940 
0:0:42:148, 2040 
0:0:42:164, 2219 
0:0:42:180, 2345 
0:0:42:196, 2449 
0:0:42:211, 2492 
0:0:42:226, 2498 
0:0:42:242, 2468 
0:0:42:257, 2406 
0:0:42:273, 2359 
0:0:42:288, 2293 
0:0:42:304, 2257 
0:0:42:320, 2222 
0:0:42:336, 2169 
0:0:42:351, 2118 
0:0:42:367, 2072 
0:0:42:383, 2026 
0:0:42:399, 2007 
0:0:42:414, 2004 
0:0:42:429, 2022 
0:0:42:444, 2051 
0:0:42:460, 2075 
0:0:42:475, 2105 
0:0:42:491, 2126 
0:0:42:507, 2135 
0:0:42:523, 2134 
0:0:42:538, 2130 
0:0:42:555, 2118 
0:0:42:570, 2102 
0:0:42:585, 2082 
0:0:42:601, 2060 
0:0:42:617, 2037 
0:0:42:632, 2005 
0:0:42:647, 1975 
0:0:42:663, 1953 
0:0:42:678, 1925 
0:0:42:694, 1906 
0:0:42:710, 1886 
0:0:42:725, 1874 
0:0:42:740, 1868 
0:0:42:756, 1852 
0:0:42:772, 1842 
0:0:42:787, 1830 
0:0:42:803, 1823 
0:0:42:819, 1818 
0:0:42:835, 1816 
0:0:42:850, 1814 
0:0:42:866, 1813 
0:0:42:882, 1812 
0:0:42:897, 1817 
0:0:42:913, 1844 
0:0:42:929, 1888 
0:0:42:945, 1957 
0:0:42:961, 2120 
0:0:42:976, 2229 
0:0:42:991, 2334 
0:0:43:7, 2451 
0:0:43:22, 2541 
0:0:43:38, 2570 
0:0:43:53, 2561 
0:0:43:69, 2513 
0:0:43:84, 2471 
0:0:43:100, 2424 
0:0:43:116, 2353 
0:0:43:131, 2279 
0:0:43:146, 2223 
0:0:43:162, 2169 
0:0:43:177, 2121 
0:0:43:193, 2074 
0:0:43:210, 2050 
0:0:43:225, 2046 
0:0:43:241, 2057 
0:0:43:257, 2077 
0:0:43:272, 2092 
0:0:43:288, 2104 
0:0:43:302, 2112 
0:0:43:318, 2108 
0:0:43:333, 2097 
0:0:43:349, 2073 
0:0:43:364, 2036 
0:0:43:380, 2010 
0:0:43:396, 1975 
0:0:43:412, 1950 
0:0:43:427, 1934 
0:0:43:442, 1911 
0:0:43:458, 1877 
0:0:43:473, 1845 
0:0:43:489, 1826 
0:0:43:504, 1808 
0:0:43:520, 1781 
0:0:43:535, 1763 
0:0:43:550, 1750 
0:0:43:566, 1732 
0:0:43:582, 1722 
0:0:43:598, 1730 
0:0:43:614, 1767 
0:0:43:629, 1823 
0:0:43:645, 1905 
0:0:43:660, 2045 
0:0:43:675, 2266 
0:0:43:690, 1878 
0:0:43:706, 1849 
0:0:43:722, 1830 
0:0:43:737, 1812 
0:0:43:753, 1798 
0:0:43:768, 1784 
0:0:43:785, 1769 
0:0:43:800, 1759 
0:0:43:815, 1752 
0:0:43:831, 1755 
0:0:43:847, 1779 
0:0:43:862, 1821 
0:0:43:878, 1917 
0:0:43:894, 2015 
0:0:43:910, 2160 
0:0:43:925, 2324 
0:0:43:941, 2430 
0:0:43:956, 2466 
0:0:43:971, 2480 
0:0:43:987, 2458 
0:0:44:2, 2409 
0:0:44:17, 2348 
0:0:44:33, 2284 
0:0:44:48, 2231 
0:0:44:64, 2191 
0:0:44:79, 2139 
0:0:44:95, 2097 
0:0:44:111, 2064 
0:0:44:126, 2063 
0:0:44:141, 2076 
0:0:44:156, 2082 
0:0:44:171, 2081 
0:0:44:186, 2070 
0:0:44:202, 2049 
0:0:44:217, 2026 
0:0:44:233, 2007 
0:0:44:249, 1968 
0:0:44:264, 1935 
0:0:44:281, 1904 
0:0:44:296, 1877 
0:0:44:312, 1845 
0:0:44:328, 1822 
0:0:44:344, 1798 
0:0:44:359, 1779 
0:0:44:375, 1765 
0:0:44:390, 1759 
0:0:44:406, 1752 
0:0:44:422, 1748 
0:0:44:437, 1748 
0:0:44:452, 1760 
0:0:44:467, 1808 
0:0:44:483, 1903 
0:0:44:499, 2072 
0:0:44:514, 2218 
0:0:44:529, 2369 
0:0:44:545, 2464 
0:0:44:561, 2476 
0:0:44:577, 2472 
0:0:44:592, 2450 
0:0:44:608, 2404 
0:0:44:624, 2331 
0:0:44:640, 2268 
0:0:44:656, 2185 
0:0:44:671, 2121 
0:0:44:687, 2092 
0:0:44:703, 2045 
0:0:44:718, 2013 
0:0:44:733, 1999 
0:0:44:748, 2004 
0:0:44:764, 2018 
0:0:44:780, 2038 
0:0:44:796, 2060 
0:0:44:811, 2068 
0:0:44:826, 2066 
0:0:44:841, 2046 
0:0:44:857, 2036 
0:0:44:872, 2009 
0:0:44:887, 1986 
0:0:44:903, 1962 
0:0:44:919, 1937 
0:0:44:935, 1904 
0:0:44:951, 1872 
0:0:44:966, 1843 
0:0:44:982, 1821 
0:0:44:998, 1801 
0:0:45:14, 1782 
0:0:45:30, 1757 
0:0:45:45, 1746 
0:0:45:60, 1727 
0:0:45:76, 1717 
0:0:45:91, 1716 
0:0:45:107, 1739 
0:0:45:122, 1792 
0:0:45:138, 1858 
0:0:45:154, 1975 
0:0:45:170, 2143 
0:0:45:185, 2295 
0:0:45:201, 2376 
0:0:45:216, 2430 
0:0:45:232, 2432 
0:0:45:247, 2421 
0:0:45:263, 2371 
0:0:45:279, 2330 
0:0:45:294, 2282 
0:0:45:309, 2229 
0:0:45:324, 2172 
0:0:45:340, 2114 
0:0:45:356, 2055 
0:0:45:371, 2019 
0:0:45:387, 1957 
0:0:45:403, 1922 
0:0:45:419, 1906 
0:0:45:434, 1908 
0:0:45:450, 1928 
0:0:45:466, 1952 
0:0:45:481, 1987 
0:0:45:497, 2023 
0:0:45:512, 2040 
0:0:45:528, 2046 
0:0:45:543, 2036 
0:0:45:558, 2016 
0:0:45:573, 1991 
0:0:45:588, 1977 
0:0:45:605, 1949 
0:0:45:621, 1921 
0:0:45:636, 1909 
0:0:45:652, 1889 
0:0:45:667, 1871 
0:0:45:683, 1847 
0:0:45:698, 1824 
0:0:45:714, 1802 
0:0:45:729, 1793 
0:0:45:744, 1779 
0:0:45:759, 1767 
0:0:45:775, 1756 
0:0:45:790, 1784 
0:0:45:807, 1857 
0:0:45:822, 1974 
0:0:45:837, 2115 
0:0:45:853, 2252 
0:0:45:869, 2362 
0:0:45:884, 2430 
0:0:45:900, 2459 
0:0:45:916, 2466 
0:0:45:932, 2454 
0:0:45:947, 2438 
0:0:45:962, 2405 
0:0:45:977, 2352 
0:0:45:993, 2308 
0:0:46:10, 2261 
0:0:46:25, 2213 
0:0:46:42, 2146 
0:0:46:57, 2113 
0:0:46:72, 2082 
0:0:46:88, 2040 
0:0:46:104, 1991 
0:0:46:119, 1975 
0:0:46:135, 1975 
0:0:46:150, 1979 
0:0:46:166, 1990 
0:0:46:182, 2012 
0:0:46:197, 2032 
0:0:46:214, 2045 
0:0:46:229, 2048 
0:0:46:245, 2046 
0:0:46:260, 2039 
0:0:46:276, 2023 
0:0:46:292, 1997 
0:0:46:307, 2463 
0:0:46:323, 2456 
0:0:46:339, 2435 
0:0:46:354, 2404 
0:0:46:369, 2337 
0:0:46:385, 2292 
0:0:46:400, 2216 
0:0:46:416, 2151 
0:0:46:431, 2093 
0:0:46:446, 2043 
0:0:46:462, 2006 
0:0:46:477, 1989 
0:0:46:493, 1985 
0:0:46:508, 1992 
0:0:46:524, 2005 
0:0:46:539, 2018 
0:0:46:555, 2019 
0:0:46:570, 2012 
0:0:46:586, 1996 
0:0:46:601, 1967 
0:0:46:617, 1939 
0:0:46:632, 1910 
0:0:46:647, 1880 
0:0:46:663, 1857 
0:0:46:678, 1833 
0:0:46:694, 1803 
0:0:46:710, 1774 
0:0:46:725, 1746 
0:0:46:741, 1725 
0:0:46:756, 1689 
0:0:46:772, 1670 
0:0:46:788, 1655 
0:0:46:804, 1650 
0:0:46:820, 1699 
0:0:46:836, 1827 
0:0:46:851, 1971 
0:0:46:866, 2086 
0:0:46:882, 2192 
0:0:46:898, 2254 
0:0:46:913, 2376 
0:0:46:929, 2414 
0:0:46:945, 2407 
0:0:46:961, 2366 
0:0:46:976, 2331 
0:0:46:991, 2279 
0:0:47:7, 2194 
0:0:47:23, 2102 
0:0:47:38, 2044 
0:0:47:54, 1993 
0:0:47:70, 1944 
0:0:47:85, 1934 
0:0:47:101, 1939 
0:0:47:117, 1955 
0:0:47:133, 1963 
0:0:47:148, 1963 
0:0:47:163, 1953 
0:0:47:179, 1942 
0:0:47:195, 1912 
0:0:47:211, 1882 
0:0:47:226, 1850 
0:0:47:241, 1820 
0:0:47:257, 1796 
0:0:47:273, 1767 
0:0:47:288, 1745 
0:0:47:303, 1724 
0:0:47:319, 1704 
0:0:47:334, 1695 
0:0:47:350, 1674 
0:0:47:366, 1666 
0:0:47:381, 1673 
0:0:47:397, 1735 
0:0:47:412, 1837 
0:0:47:427, 2011 
0:0:47:443, 2154 
0:0:47:458, 2274 
0:0:47:474, 2371 
0:0:47:490, 2412 
0:0:47:505, 2420 
0:0:47:521, 2398 
0:0:47:537, 2354 
0:0:47:553, 2298 
0:0:47:569, 2233 
0:0:47:585, 2205 
0:0:47:600, 2176 
0:0:47:616, 2102 
0:0:47:632, 2050 
0:0:47:647, 2022 
0:0:47:662, 1995 
0:0:47:678, 1988 
0:0:47:693, 1990 
0:0:47:708, 1992 
0:0:47:724, 1997 
0:0:47:739, 2007 
0:0:47:755, 2014 
0:0:47:770, 2016 
0:0:47:785, 2015 
0:0:47:801, 2013 
0:0:47:817, 2005 
0:0:47:832, 1992 
0:0:47:848, 1968 
0:0:47:863, 1940 
0:0:47:879, 1918 
0:0:47:894, 1887 
0:0:47:910, 1856 
0:0:47:926, 1824 
0:0:47:942, 1785 
0:0:47:958, 1777 
0:0:47:973, 1751 
0:0:47:988, 1724 
0:0:48:4, 1714 
0:0:48:19, 1698 
0:0:48:35, 1689 
0:0:48:51, 1683 
0:0:48:66, 1689 
0:0:48:82, 1739 
0:0:48:98, 1827 
0:0:48:113, 1954 
0:0:48:129, 2095 
0:0:48:145, 2227 
0:0:48:160, 2343 
0:0:48:176, 2409 
0:0:48:191, 2434 
0:0:48:207, 2433 
0:0:48:222, 2424 
0:0:48:237, 2403 
0:0:48:252, 2365 
0:0:48:268, 2317 
0:0:48:283, 2279 
0:0:48:298, 2223 
0:0:48:315, 2178 
0:0:48:330, 2118 
0:0:48:345, 2076 
0:0:48:361, 2038 
0:0:48:377, 2000 
0:0:48:392, 1983 
0:0:48:409, 1973 
0:0:48:424, 1971 
0:0:48:440, 1975 
0:0:48:455, 1983 
0:0:48:471, 1986 
0:0:48:487, 1980 
0:0:48:503, 1969 
0:0:48:518, 1956 
0:0:48:533, 1935 
0:0:48:549, 1906 
0:0:48:565, 1881 
0:0:48:581, 1861 
0:0:48:596, 1833 
0:0:48:612, 1811 
0:0:48:627, 1789 
0:0:48:643, 1775 
0:0:48:659, 1750 
0:0:48:675, 1725 
0:0:48:691, 1709 
0:0:48:706, 1684 
0:0:48:722, 1678 
0:0:48:737, 1720 
0:0:48:752, 1836 
0:0:48:768, 2010 
0:0:48:784, 2084 
0:0:48:799, 2158 
0:0:48:815, 2349 
0:0:48:831, 2431 
0:0:48:847, 2450 
0:0:48:862, 2450 
0:0:48:877, 2428 
0:0:48:893, 2066 
0:0:48:908, 2030 
0:0:48:924, 1991 
0:0:48:939, 1976 
0:0:48:955, 1978 
0:0:48:970, 1991 
0:0:48:986, 2005 
0:0:49:1, 2005 
0:0:49:16, 1993 
0:0:49:31, 1975 
0:0:49:46, 1958 
0:0:49:62, 1940 
0:0:49:77, 1934 
0:0:49:93, 1927 
0:0:49:110, 1914 
0:0:49:125, 1900 
0:0:49:141, 1880 
0:0:49:156, 1861 
0:0:49:171, 1830 
0:0:49:187, 1806 
0:0:49:203, 1782 
0:0:49:218, 1765 
0:0:49:234, 1737 
0:0:49:250, 1713 
0:0:49:265, 1692 
0:0:49:281, 1678 
0:0:49:297, 1677 
0:0:49:313, 1690 
0:0:49:329, 1730 
0:0:49:345, 1773 
0:0:49:362, 1899 
0:0:49:377, 2015 
0:0:49:392, 2135 
0:0:49:408, 2285 
0:0:49:424, 2420 
0:0:49:439, 2503 
0:0:49:455, 2523 
0:0:49:470, 2510 
0:0:49:487, 2489 
0:0:49:503, 2480 
0:0:49:518, 2439 
0:0:49:534, 2390 
0:0:49:550, 2349 
0:0:49:565, 2287 
0:0:49:581, 2237 
0:0:49:596, 2187 
0:0:49:612, 2155 
0:0:49:628, 2097 
0:0:49:644, 2060 
0:0:49:660, 2031 
0:0:49:676, 2009 
0:0:49:692, 1989 
0:0:49:707, 1986 
0:0:49:723, 1980 
0:0:49:739, 1980 
0:0:49:755, 1981 
0:0:49:770, 1981 
0:0:49:786, 1978 
0:0:49:802, 1972 
0:0:49:818, 1963 
0:0:49:833, 1948 
0:0:49:848, 1929 
0:0:49:864, 1906 
0:0:49:879, 1888 
0:0:49:895, 1868 
0:0:49:910, 1849 
0:0:49:926, 1823 
0:0:49:942, 1798 
0:0:49:958, 1779 
0:0:49:973, 1756 
0:0:49:989, 1737 
0:0:50:4, 1723 
0:0:50:20, 1713 
0:0:50:35, 1710 
0:0:50:51, 1730 
0:0:50:67, 1804 
0:0:50:82, 1913 
0:0:50:98, 2017 
0:0:50:113, 2089 
0:0:50:129, 2198 
0:0:50:144, 2295 
0:0:50:160, 2385 
0:0:50:176, 2454 
0:0:50:193, 2475 
0:0:50:209, 2478 
0:0:50:224, 2463 
0:0:50:239, 2426 
0:0:50:255, 2402 
0:0:50:270, 2362 
0:0:50:287, 2318 
0:0:50:303, 2259 
0:0:50:318, 2196 
0:0:50:334, 2132 
0:0:50:349, 2050 
0:0:50:365, 1977 
0:0:50:380, 1920 
0:0:50:396, 1905 
0:0:50:411, 1909 
0:0:50:427, 1921 
0:0:50:443, 1931 
0:0:50:459, 1939 
0:0:50:475, 1937 
0:0:50:490, 1933 
0:0:50:505, 1920 
0:0:50:521, 1897 
0:0:50:537, 1881 
0:0:50:554, 1864 
0:0:50:570, 1847 
0:0:50:586, 1835 
0:0:50:601, 1813 
0:0:50:617, 1796 
0:0:50:633, 1774 
0:0:50:647, 1758 
0:0:50:663, 1737 
0:0:50:678, 1721 
0:0:50:694, 1702 
0:0:50:709, 1681 
0:0:50:725, 1666 
0:0:50:740, 1648 
0:0:50:756, 1639 
0:0:50:772, 1640 
0:0:50:787, 1677 
0:0:50:802, 1740 
0:0:50:819, 1873 
0:0:50:834, 1996 
0:0:50:850, 2165 
0:0:50:866, 2278 
0:0:50:882, 2384 
0:0:50:897, 2463 
0:0:50:913, 2490 
0:0:50:929, 2469 
0:0:50:944, 2422 
0:0:50:960, 2361 
0:0:50:975, 2310 
0:0:50:990, 2239 
0:0:51:6, 2166 
0:0:51:22, 2091 
0:0:51:37, 2034 
0:0:51:53, 1981 
0:0:51:68, 1921 
0:0:51:84, 1880 
0:0:51:99, 1862 
0:0:51:115, 1862 
0:0:51:131, 1875 
0:0:51:146, 1900 
0:0:51:162, 1921 
0:0:51:178, 1938 
0:0:51:193, 1952 
0:0:51:209, 1956 
0:0:51:225, 1948 
0:0:51:241, 1925 
0:0:51:257, 1893 
0:0:51:272, 1879 
0:0:51:287, 1865 
0:0:51:303, 1836 
0:0:51:319, 1803 
0:0:51:334, 1784 
0:0:51:349, 1759 
0:0:51:365, 1741 
0:0:51:380, 1721 
0:0:51:395, 1703 
0:0:51:411, 1687 
0:0:51:427, 1666 
0:0:51:443, 1661 
0:0:51:459, 1706 
0:0:51:475, 1875 
0:0:51:491, 1998 
0:0:51:507, 2214 
0:0:51:522, 2363 
0:0:51:537, 2484 
0:0:51:553, 2523 
0:0:51:568, 2536 
0:0:51:583, 2527 
0:0:51:599, 2501 
0:0:51:615, 2462 
0:0:51:631, 2433 
0:0:51:647, 2380 
0:0:51:663, 2328 
0:0:51:678, 2256 
0:0:51:694, 2199 
0:0:51:709, 1957 
0:0:51:724, 1926 
0:0:51:740, 1908 
0:0:51:756, 1900 
0:0:51:770, 1901 
0:0:51:787, 1905 
0:0:51:802, 1908 
0:0:51:817, 1918 
0:0:51:833, 1927 
0:0:51:848, 1932 
0:0:51:864, 1938 
0:0:51:879, 1937 
0:0:51:896, 1931 
0:0:51:911, 1920 
0:0:51:926, 1906 
0:0:51:942, 1882 
0:0:51:957, 1870 
0:0:51:973, 1856 
0:0:51:988, 1842 
0:0:52:4, 1828 
0:0:52:20, 1801 
0:0:52:35, 1779 
0:0:52:51, 1751 
0:0:52:67, 1738 
0:0:52:82, 1725 
0:0:52:97, 1698 
0:0:52:113, 1671 
0:0:52:128, 1636 
0:0:52:144, 1599 
0:0:52:159, 1566 
0:0:52:175, 1557 
0:0:52:190, 1560 
0:0:52:206, 1617 
0:0:52:222, 1797 
0:0:52:237, 2000 
0:0:52:253, 2210 
0:0:52:268, 2426 
0:0:52:284, 2553 
0:0:52:300, 2600 
0:0:52:315, 2605 
0:0:52:331, 2587 
0:0:52:347, 2552 
0:0:52:363, 2472 
0:0:52:378, 2394 
0:0:52:393, 2289 
0:0:52:409, 2200 
0:0:52:425, 2133 
0:0:52:440, 2067 
0:0:52:455, 1968 
0:0:52:471, 1897 
0:0:52:487, 1859 
0:0:52:502, 1859 
0:0:52:518, 1876 
0:0:52:533, 1901 
0:0:52:549, 1907 
0:0:52:564, 1907 
0:0:52:580, 1892 
0:0:52:595, 1864 
0:0:52:610, 1826 
0:0:52:625, 1801 
0:0:52:641, 1775 
0:0:52:658, 1731 
0:0:52:674, 1691 
0:0:52:690, 1651 
0:0:52:705, 1612 
0:0:52:720, 1571 
0:0:52:736, 1539 
0:0:52:751, 1501 
0:0:52:766, 1484 
0:0:52:782, 1517 
0:0:52:798, 1674 
0:0:52:814, 1881 
0:0:52:829, 2113 
0:0:52:844, 2323 
0:0:52:860, 2496 
0:0:52:875, 2587 
0:0:52:891, 2613 
0:0:52:907, 2598 
0:0:52:923, 2521 
0:0:52:939, 2430 
0:0:52:955, 2350 
0:0:52:971, 2266 
0:0:52:987, 2179 
0:0:53:2, 2093 
0:0:53:18, 2011 
0:0:53:33, 1945 
0:0:53:49, 1900 
0:0:53:65, 1881 
0:0:53:80, 1881 
0:0:53:96, 1890 
0:0:53:111, 1907 
0:0:53:127, 1926 
0:0:53:142, 1948 
0:0:53:158, 1955 
0:0:53:173, 1962 
0:0:53:189, 1948 
0:0:53:205, 1928 
0:0:53:221, 1901 
0:0:53:237, 1868 
0:0:53:253, 1841 
0:0:53:268, 1813 
0:0:53:284, 1784 
0:0:53:300, 1758 
0:0:53:316, 1726 
0:0:53:331, 1703 
0:0:53:346, 1689 
0:0:53:362, 1666 
0:0:53:378, 1635 
0:0:53:393, 1612 
0:0:53:408, 1591 
0:0:53:424, 1557 
0:0:53:439, 1543 
0:0:53:454, 1544 
0:0:53:470, 1604 
0:0:53:485, 1705 
0:0:53:500, 1904 
0:0:53:516, 2193 
0:0:53:531, 2401 
0:0:53:547, 2624 
0:0:53:562, 2669 
0:0:53:578, 2640 
0:0:53:594, 2580 
0:0:53:610, 2461 
0:0:53:626, 2346 
0:0:53:642, 2251 
0:0:53:657, 2179 
0:0:53:672, 2085 
0:0:53:687, 2020 
0:0:53:703, 1959 
0:0:53:719, 1917 
0:0:53:734, 1878 
0:0:53:749, 1877 
0:0:53:764, 1901 
0:0:53:779, 1937 
0:0:53:795, 1967 
0:0:53:810, 1977 
0:0:53:825, 1970 
0:0:53:840, 1944 
0:0:53:856, 1922 
0:0:53:872, 1891 
0:0:53:888, 1857 
0:0:53:903, 1831 
0:0:53:919, 1789 
0:0:53:934, 1763 
0:0:53:950, 1729 
0:0:53:966, 1696 
0:0:53:981, 1665 
0:0:53:997, 1629 
0:0:54:12, 1601 
0:0:54:28, 1573 
0:0:54:43, 1551 
0:0:54:58, 1573 
0:0:54:74, 1706 
0:0:54:90, 1901 
0:0:54:106, 2243 
0:0:54:121, 2395 
0:0:54:137, 2597 
0:0:54:153, 2664 
0:0:54:168, 2650 
0:0:54:183, 2597 
0:0:54:199, 2543 
0:0:54:215, 2411 
0:0:54:231, 2289 
0:0:54:246, 2187 
0:0:54:261, 2087 
0:0:54:277, 1748 
0:0:54:292, 1709 
0:0:54:308, 1661 
0:0:54:323, 1638 
0:0:54:338, 1622 
0:0:54:354, 1600 
0:0:54:369, 1565 
0:0:54:385, 1548 
0:0:54:401, 1604 
0:0:54:416, 1789 
0:0:54:432, 2127 
0:0:54:447, 2479 
0:0:54:463, 2634 
0:0:54:479, 2668 
0:0:54:495, 2629 
0:0:54:511, 2543 
0:0:54:526, 2501 
0:0:54:542, 2406 
0:0:54:558, 2304 
0:0:54:573, 2199 
0:0:54:588, 2095 
0:0:54:604, 1957 
0:0:54:620, 1876 
0:0:54:635, 1841 
0:0:54:651, 1857 
0:0:54:666, 1882 
0:0:54:681, 1919 
0:0:54:697, 1951 
0:0:54:712, 1977 
0:0:54:728, 1981 
0:0:54:743, 1974 
0:0:54:759, 1956 
0:0:54:774, 1930 
0:0:54:789, 1891 
0:0:54:805, 1857 
0:0:54:820, 1839 
0:0:54:836, 1802 
0:0:54:852, 1775 
0:0:54:868, 1748 
0:0:54:884, 1714 
0:0:54:900, 1689 
0:0:54:916, 1658 
0:0:54:931, 1635 
0:0:54:946, 1604 
0:0:54:963, 1564 
0:0:54:978, 1559 
0:0:54:994, 1648 
0:0:55:9, 1816 
0:0:55:25, 2043 
0:0:55:41, 2221 
0:0:55:56, 2431 
0:0:55:72, 2630 
0:0:55:87, 2681 
0:0:55:103, 2694 
0:0:55:119, 2639 
0:0:55:135, 2565 
0:0:55:151, 2498 
0:0:55:166, 2420 
0:0:55:182, 2289 
0:0:55:198, 2155 
0:0:55:214, 2008 
0:0:55:230, 1902 
0:0:55:245, 1868 
0:0:55:260, 1869 
0:0:55:276, 1905 
0:0:55:292, 1955 
0:0:55:309, 2003 
0:0:55:325, 2017 
0:0:55:340, 2017 
0:0:55:357, 2002 
0:0:55:372, 1984 
0:0:55:387, 1962 
0:0:55:403, 1930 
0:0:55:418, 1887 
0:0:55:434, 1860 
0:0:55:450, 1834 
0:0:55:466, 1789 
0:0:55:481, 1764 
0:0:55:497, 1716 
0:0:55:512, 1668 
0:0:55:528, 1637 
0:0:55:543, 1617 
0:0:55:559, 1597 
0:0:55:574, 1619 
0:0:55:590, 1714 
0:0:55:606, 1889 
0:0:55:621, 2055 
0:0:55:636, 2282 
0:0:55:652, 2518 
0:0:55:668, 2671 
0:0:55:684, 2702 
0:0:55:699, 2684 
0:0:55:714, 2646 
0:0:55:729, 2551 
0:0:55:744, 2433 
0:0:55:761, 2279 
0:0:55:777, 2200 
0:0:55:793, 2097 
0:0:55:810, 2007 
0:0:55:825, 1938 
0:0:55:840, 1893 
0:0:55:855, 1892 
0:0:55:871, 1909 
0:0:55:886, 1926 
0:0:55:901, 1965 
0:0:55:917, 1994 
0:0:55:933, 2017 
0:0:55:948, 2032 
0:0:55:964, 2039 
0:0:55:980, 2039 
0:0:55:995, 2028 
0:0:56:11, 2014 
0:0:56:27, 1995 
0:0:56:42, 1972 
0:0:56:57, 1947 
0:0:56:73, 1930 
0:0:56:88, 1913 
0:0:56:104, 1887 
0:0:56:119, 1851 
0:0:56:134, 1808 
0:0:56:149, 1766 
0:0:56:165, 1734 
0:0:56:180, 1696 
0:0:56:196, 1673 
0:0:56:212, 1640 
0:0:56:228, 1626 
0:0:56:244, 1681 
0:0:56:259, 1811 
0:0:56:275, 2063 
0:0:56:291, 2333 
0:0:56:307, 2508 
0:0:56:323, 2671 
0:0:56:339, 2683 
0:0:56:354, 2639 
0:0:56:370, 2569 
0:0:56:386, 2482 
0:0:56:402, 2408 
0:0:56:417, 2279 
0:0:56:433, 2175 
0:0:56:449, 2036 
0:0:56:464, 1954 
0:0:56:480, 1919 
0:0:56:496, 1932 
0:0:56:513, 1984 
0:0:56:528, 2013 
0:0:56:543, 2050 
0:0:56:559, 2068 
0:0:56:575, 2065 
0:0:56:591, 2051 
0:0:56:606, 2035 
0:0:56:621, 2008 
0:0:56:636, 1979 
0:0:56:652, 1918 
0:0:56:667, 1810 
0:0:56:683, 1765 
0:0:56:699, 1721 
0:0:56:715, 1694 
0:0:56:731, 1667 
0:0:56:747, 1698 
0:0:56:762, 1833 
0:0:56:777, 2063 
0:0:56:793, 2364 
0:0:56:809, 2521 
0:0:56:825, 2617 
0:0:56:840, 2658 
0:0:56:855, 2669 
0:0:56:870, 2655 
0:0:56:886, 2607 
0:0:56:902, 2535 
0:0:56:917, 2448 
0:0:56:933, 2350 
0:0:56:948, 2222 
0:0:56:964, 2100 
0:0:56:980, 2019 
0:0:56:996, 1945 
0:0:57:11, 1936 
0:0:57:26, 1956 
0:0:57:42, 1992 
0:0:57:57, 2022 
0:0:57:73, 2057 
0:0:57:89, 2077 
0:0:57:105, 2085 
0:0:57:120, 2080 
0:0:57:137, 2066 
0:0:57:153, 2050 
0:0:57:168, 2018 
0:0:57:184, 1995 
0:0:57:200, 1955 
0:0:57:215, 1929 
0:0:57:230, 1903 
0:0:57:246, 1869 
0:0:57:261, 1838 
0:0:57:277, 1815 
0:0:57:293, 1773 
0:0:57:309, 1747 
0:0:57:325, 1723 
0:0:57:339, 1709 
0:0:57:355, 1700 
0:0:57:370, 1722 
0:0:57:386, 1803 
0:0:57:401, 1997 
0:0:57:416, 2245 
0:0:57:431, 2386 
0:0:57:447, 2505 
0:0:57:463, 2630 
0:0:57:479, 2680 
0:0:57:494, 2634 
0:0:57:510, 2571 
0:0:57:525, 2469 
0:0:57:541, 2355 
0:0:57:556, 2332 
0:0:57:572, 2190 
0:0:57:588, 2104 
0:0:57:603, 2019 
0:0:57:619, 1996 
0:0:57:635, 2004 
0:0:57:651, 2022 
0:0:57:666, 2047 
0:0:57:682, 2095 
0:0:57:698, 2116 
0:0:57:713, 2124 
0:0:57:729, 2115 
0:0:57:744, 2091 
0:0:57:760, 2056 
0:0:57:775, 2007 
0:0:57:791, 1973 
0:0:57:807, 1922 
0:0:57:823, 1883 
0:0:57:838, 1867 
0:0:57:854, 1846 
0:0:57:870, 1826 
0:0:57:886, 1803 
0:0:57:900, 1781 
0:0:57:916, 1765 
0:0:57:931, 1744 
0:0:57:946, 1741 
0:0:57:962, 1804 
0:0:57:978, 1887 
0:0:57:994, 2136 
0:0:58:9, 2365 
0:0:58:25, 2559 
0:0:58:40, 2657 
0:0:58:56, 2674 
0:0:58:72, 2653 
0:0:58:88, 2618 
0:0:58:103, 2553 
0:0:58:118, 2474 
0:0:58:133, 2382 
0:0:58:148, 2290 
0:0:58:164, 2202 
0:0:58:180, 2095 
0:0:58:196, 2052 
0:0:58:212, 2050 
0:0:58:227, 2076 
0:0:58:243, 2099 
0:0:58:258, 2132 
0:0:58:273, 2148 
0:0:58:288, 2150 
0:0:58:304, 2136 
0:0:58:320, 2102 
0:0:58:336, 2073 
0:0:58:352, 2041 
0:0:58:367, 2000 
0:0:58:382, 1974 
0:0:58:398, 1935 
0:0:58:413, 1905 
0:0:58:429, 1870 
0:0:58:445, 1843 
0:0:58:461, 1819 
0:0:58:476, 1792 
0:0:58:492, 1773 
0:0:58:508, 1784 
0:0:58:523, 1899 
0:0:58:538, 2042 
0:0:58:554, 2127 
0:0:58:569, 2338 
0:0:58:585, 2510 
0:0:58:600, 2622 
0:0:58:615, 2639 
0:0:58:630, 2582 
0:0:58:645, 2501 
0:0:58:660, 2423 
0:0:58:676, 2318 
0:0:58:692, 2195 
0:0:58:707, 2099 
0:0:58:723, 2059 
0:0:58:739, 2062 
0:0:58:754, 2084 
0:0:58:770, 2102 
0:0:58:786, 2130 
0:0:58:802, 2135 
0:0:58:817, 2130 
0:0:58:832, 2114 
0:0:58:848, 2091 
0:0:58:864, 2063 
0:0:58:880, 2041 
0:0:58:895, 2005 
0:0:58:910, 1967 
0:0:58:926, 1932 
0:0:58:941, 1906 
0:0:58:957, 1882 
0:0:58:972, 1858 
0:0:58:987, 1835 
0:0:59:2, 1818 
0:0:59:17, 1798 
0:0:59:33, 1782 
0:0:59:49, 1786 
0:0:59:64, 1826 
0:0:59:81, 1887 
0:0:59:96, 1914 
0:0:59:112, 2049 
0:0:59:127, 2168 
0:0:59:142, 2325 
0:0:59:158, 2459 
0:0:59:174, 2578 
0:0:59:189, 2606 
0:0:59:205, 2581 
0:0:59:220, 2516 
0:0:59:236, 2446 
0:0:59:252, 2326 
0:0:59:268, 2222 
0:0:59:284, 2133 
0:0:59:300, 2093 
0:0:59:315, 2074 
0:0:59:330, 2054 
0:0:59:345, 2072 
0:0:59:362, 2107 
0:0:59:377, 2143 
0:0:59:393, 2156 
0:0:59:408, 2157 
0:0:59:423, 2144 
0:0:59:438, 2130 
0:0:59:453, 2106 
0:0:59:469, 2073 
0:0:59:484, 2047 
0:0:59:499, 2014 
0:0:59:515, 1995 
0:0:59:530, 1976 
0:0:59:546, 1946 
0:0:59:562, 1925 
0:0:59:578, 1902 
0:0:59:594, 1881 
0:0:59:610, 1866 
0:0:59:626, 1861 
0:0:59:642, 1901 
0:0:59:658, 2044 
0:0:59:673, 2187 
0:0:59:688, 2337 
0:0:59:704, 2496 
0:0:59:720, 2592 
0:0:59:736, 2628 
0:0:59:752, 2626 
0:0:59:767, 2594 
0:0:59:783, 2528 
0:0:59:799, 2463 
0:0:59:815, 2372 
0:0:59:830, 2282 
0:0:59:845, 2212 
0:0:59:860, 2170 
0:0:59:876, 2169 
0:0:59:891, 2184 
0:0:59:907, 2207 
0:0:59:923, 2216 
0:0:59:938, 2221 
0:0:59:953, 2221 
0:0:59:969, 2212 
0:0:59:985, 2201 
0:1:0:0, 2183 
0:1:0:16, 2165 
0:1:0:32, 2139 
0:1:0:48, 2112 
0:1:0:63, 2082 
0:1:0:79, 2060 
0:1:0:94, 2045 
0:1:0:109, 2004 
0:1:0:125, 1962 
0:1:0:141, 1938 
0:1:0:157, 1915 
0:1:0:172, 1868 
0:1:0:188, 1835 
0:1:0:204, 1813 
0:1:0:219, 1811 
0:1:0:234, 1840 
0:1:0:250, 1917 
0:1:0:266, 2043 
0:1:0:282, 2199 
0:1:0:297, 2354 
0:1:0:312, 2485 
0:1:0:328, 2601 
0:1:0:343, 2625 
0:1:0:358, 2629 
0:1:0:373, 2620 
0:1:0:389, 2585 
0:1:0:405, 2548 
0:1:0:420, 2457 
0:1:0:435, 2389 
0:1:0:450, 2287 
0:1:0:466, 2229 
0:1:0:482, 2181 
0:1:0:498, 2162 
0:1:0:514, 2175 
0:1:0:530, 2195 
0:1:0:545, 2209 
0:1:0:560, 2204 
0:1:0:575, 2196 
0:1:0:591, 2180 
0:1:0:607, 2152 
0:1:0:623, 2111 
0:1:0:639, 2052 
0:1:0:655, 2008 
0:1:0:671, 1984 
0:1:0:686, 1960 
0:1:0:701, 1943 
0:1:0:716, 1928 
0:1:0:732, 1915 
0:1:0:748, 1904 
0:1:0:763, 1901 
0:1:0:779, 1893 
0:1:0:795, 1890 
0:1:0:810, 1903 
0:1:0:826, 1966 
0:1:0:842, 2066 
0:1:0:857, 2163 
0:1:0:872, 2269 
0:1:0:888, 2437 
0:1:0:903, 2574 
0:1:0:918, 2622 
0:1:0:934, 2630 
0:1:0:949, 2600 
0:1:0:965, 2570 
0:1:0:981, 2521 
0:1:0:997, 2465 
0:1:1:12, 2402 
0:1:1:27, 2337 
0:1:1:42, 2290 
0:1:1:57, 2236 
0:1:1:73, 2185 
0:1:1:89, 2174 
0:1:1:104, 2181 
0:1:1:119, 2187 
0:1:1:135, 2205 
0:1:1:151, 2218 
0:1:1:166, 2219 
0:1:1:182, 2211 
0:1:1:198, 2185 
0:1:1:214, 2154 
0:1:1:230, 2125 
0:1:1:246, 2086 
0:1:1:262, 2055 
0:1:1:278, 2018 
0:1:1:294, 1986 
0:1:1:310, 1955 
0:1:1:326, 1934 
0:1:1:342, 1917 
0:1:1:357, 1901 
0:1:1:374, 1891 
0:1:1:390, 1881 
0:1:1:405, 1870 
0:1:1:420, 1865 
0:1:1:436, 1868 
0:1:1:451, 1878 
0:1:1:467, 1926 
0:1:1:483, 2017 
0:1:1:499, 2179 
0:1:1:515, 2319 
0:1:1:530, 2441 
0:1:1:545, 2554 
0:1:1:561, 2581 
0:1:1:576, 2589 
0:1:1:592, 2581 
0:1:1:607, 2561 
0:1:1:623, 2512 
0:1:1:638, 2460 
0:1:1:653, 2420 
0:1:1:669, 2393 
0:1:1:685, 2350 
0:1:1:701, 2294 
0:1:1:717, 2235 
0:1:1:733, 2209 
0:1:1:749, 2186 
0:1:1:765, 2180 
0:1:1:781, 2182 
0:1:1:796, 2184 
0:1:1:812, 2186 
0:1:1:827, 2181 
0:1:1:842, 2166 
0:1:1:858, 2138 
0:1:1:874, 2102 
0:1:1:889, 2071 
0:1:1:905, 2037 
0:1:1:921, 1984 
0:1:1:936, 1934 
0:1:1:952, 1896 
0:1:1:968, 1857 
0:1:1:984, 1835 
0:1:2:0, 1818 
0:1:2:15, 1805 
0:1:2:31, 1796 
0:1:2:47, 1787 
0:1:2:62, 1782 
0:1:2:77, 1778 
0:1:2:93, 1778 
0:1:2:108, 1779 
0:1:2:125, 1780 
0:1:2:140, 1783 
0:1:2:155, 1789 
0:1:2:170, 1811 
0:1:2:186, 1832 
0:1:2:202, 1884 
0:1:2:217, 1991 
0:1:2:232, 2166 
0:1:2:247, 2274 
0:1:2:263, 2402 
0:1:2:279, 2487 
0:1:2:294, 2545 
0:1:2:309, 2559 
0:1:2:325, 2550 
0:1:2:341, 2520 
0:1:2:356, 2489 
0:1:2:371, 2454 
0:1:2:386, 2402 
0:1:2:402, 2360 
0:1:2:417, 2299 
0:1:2:433, 2237 
0:1:2:448, 2179 
0:1:2:464, 2131 
0:1:2:480, 2107 
0:1:2:495, 2092 
0:1:2:512, 2086 
0:1:2:528, 2086 
0:1:2:544, 2091 
0:1:2:559, 2095 
0:1:2:575, 2099 
0:1:2:590, 2098 
0:1:2:605, 2096 
0:1:2:621, 2093 
0:1:2:636, 2084 
0:1:2:651, 2067 
0:1:2:666, 2042 
0:1:2:682, 2017 
0:1:2:698, 2000 
0:1:2:714, 1988 
0:1:2:730, 1966 
0:1:2:746, 1946 
0:1:2:762, 1931 
0:1:2:777, 1907 
0:1:2:793, 1887 
0:1:2:809, 1874 
0:1:2:825, 1872 
0:1:2:840, 1863 
0:1:2:856, 1859 
0:1:2:872, 1853 
0:1:2:888, 1847 
0:1:2:903, 1844 
0:1:2:919, 1839 
0:1:2:934, 1833 
0:1:2:950, 1826 
0:1:2:966, 1819 
0:1:2:981, 1809 
0:1:2:997, 1804 
0:1:3:12, 1822 
0:1:3:28, 1898 
0:1:3:44, 2005 
0:1:3:59, 2171 
0:1:3:74, 2269 
0:1:3:89, 2355 
0:1:3:105, 2448 
0:1:3:120, 2478 
0:1:3:136, 2486 
0:1:3:151, 2476 
0:1:3:167, 2454 
0:1:3:182, 2424 
0:1:3:198, 2388 
0:1:3:214, 2351 
0:1:3:229, 2313 
0:1:3:245, 2248 
0:1:3:261, 2195 
0:1:3:276, 2171 
0:1:3:292, 2127 
0:1:3:308, 2099 
0:1:3:323, 2086 
0:1:3:338, 2089 
0:1:3:353, 2097 
0:1:3:370, 2109 
0:1:3:385, 2115 
0:1:3:400, 2118 
0:1:3:416, 2111 
0:1:3:431, 2091 
0:1:3:447, 2060 
0:1:3:463, 2046 
0:1:3:479, 2004 
0:1:3:495, 1969 
0:1:3:510, 1934 
0:1:3:527, 1908 
0:1:3:542, 1876 
0:1:3:558, 1860 
0:1:3:574, 1830 
0:1:3:590, 1815 
0:1:3:606, 1796 
0:1:3:621, 1772 
0:1:3:636, 1758 
0:1:3:651, 1743 
0:1:3:667, 1732 
0:1:3:682, 1724 
0:1:3:699, 1719 
0:1:3:715, 1712 
0:1:3:730, 1706 
0:1:3:745, 1701 
0:1:3:761, 1698 
0:1:3:776, 1703 
0:1:3:791, 1727 
0:1:3:807, 1787 
0:1:3:823, 1955 
0:1:3:839, 2096 
0:1:3:854, 2233 
0:1:3:869, 2344 
0:1:3:885, 2425 
0:1:3:901, 2452 
0:1:3:916, 2450 
0:1:3:932, 2433 
0:1:3:948, 2396 
0:1:3:964, 2361 
0:1:3:979, 2326 
0:1:3:995, 2290 
0:1:4:11, 2253 
0:1:4:26, 2216 
0:1:4:41, 2189 
0:1:4:54, 2149 
0:1:4:73, 2124 
0:1:4:88, 2099 
0:1:4:104, 2069 
0:1:4:120, 2043 
0:1:4:135, 2027 
0:1:4:151, 2019 
0:1:4:167, 2017 
0:1:4:183, 2018 
0:1:4:198, 2022 
0:1:4:213, 2026 
0:1:4:229, 2030 
0:1:4:245, 2032 
0:1:4:260, 2031 
0:1:4:275, 2022 
0:1:4:291, 2015 
0:1:4:307, 2000 
0:1:4:322, 1978 
0:1:4:338, 1954 
0:1:4:353, 1941 
0:1:4:369, 1921 
0:1:4:385, 1908 
0:1:4:401, 1888 
0:1:4:417, 1882 
0:1:4:433, 1868 
0:1:4:449, 1845 
0:1:4:464, 1828 
0:1:4:480, 1809 
0:1:4:495, 1796 
0:1:4:510, 1781 
0:1:4:526, 1772 
0:1:4:542, 1768 
0:1:4:557, 1760 
0:1:4:573, 1755 
0:1:4:588, 1753 
0:1:4:604, 1750 
0:1:4:620, 1749 
0:1:4:636, 1747 
0:1:4:652, 1741 
0:1:4:666, 1736 
0:1:4:681, 1730 
0:1:4:697, 1716 
0:1:4:713, 1707 
0:1:4:729, 1695 
0:1:4:744, 1691 
0:1:4:760, 1726 
0:1:4:775, 1826 
0:1:4:792, 1983 
0:1:4:807, 2089 
0:1:4:822, 2220 
0:1:4:838, 2355 
0:1:4:853, 2384 
0:1:4:869, 2402 
0:1:4:885, 2414 
0:1:4:901, 2404 
0:1:4:916, 2373 
0:1:4:931, 2354 
0:1:4:947, 2334 
0:1:4:962, 2323 
0:1:4:978, 2312 
0:1:4:995, 2278 
0:1:5:10, 2255 
0:1:5:26, 2219 
0:1:5:41, 2193 
0:1:5:57, 2167 
0:1:5:72, 2125 
0:1:5:87, 2101 
0:1:5:103, 2059 
0:1:5:118, 2030 
0:1:5:133, 2017 
0:1:5:149, 2010 
0:1:5:164, 2010 
0:1:5:180, 2015 
0:1:5:195, 2019 
0:1:5:211, 2015 
0:1:5:227, 2005 
0:1:5:243, 1987 
0:1:5:258, 1963 
0:1:5:274, 1950 
0:1:5:290, 1921 
0:1:5:306, 1899 
0:1:5:322, 1891 
0:1:5:337, 1876 
0:1:5:352, 1854 
0:1:5:369, 1834 
0:1:5:385, 1808 
0:1:5:400, 1784 
0:1:5:416, 1773 
0:1:5:431, 1758 
0:1:5:447, 1739 
0:1:5:463, 1727 
0:1:5:478, 1719 
0:1:5:493, 1708 
0:1:5:509, 1700 
0:1:5:524, 1693 
0:1:5:540, 1687 
0:1:5:555, 1684 
0:1:5:570, 1681 
0:1:5:585, 1678 
0:1:5:601, 1668 
0:1:5:617, 1662 
0:1:5:633, 1657 
0:1:5:648, 1658 
0:1:5:664, 1676 
0:1:5:680, 1752 
0:1:5:696, 1893 
0:1:5:712, 1997 
0:1:5:727, 2163 
0:1:5:742, 2303 
0:1:5:758, 2355 
0:1:5:773, 2371 
0:1:5:789, 2351 
0:1:5:805, 2306 
0:1:5:820, 2263 
0:1:5:836, 2242 
0:1:5:851, 2207 
0:1:5:866, 2171 
0:1:5:881, 2134 
0:1:5:897, 2087 
0:1:5:913, 2055 
0:1:5:929, 2016 
0:1:5:944, 2001 
0:1:5:960, 2001 
0:1:5:976, 2009 
0:1:5:992, 2018 
0:1:6:8, 2016 
0:1:6:24, 2003 
0:1:6:40, 1986 
0:1:6:56, 1970 
0:1:6:72, 1941 
0:1:6:87, 1922 
0:1:6:102, 1897 
0:1:6:118, 1878 
0:1:6:134, 1855 
0:1:6:149, 1834 
0:1:6:164, 1816 
0:1:6:179, 1797 
0:1:6:195, 1785 
0:1:6:211, 1776 
0:1:6:226, 1768 
0:1:6:242, 1762 
0:1:6:257, 1758 
0:1:6:273, 1755 
0:1:6:289, 1749 
0:1:6:305, 1744 
0:1:6:321, 1738 
0:1:6:336, 1732 
0:1:6:352, 1723 
0:1:6:368, 1722 
0:1:6:383, 1734 
0:1:6:398, 1763 
0:1:6:414, 1867 
0:1:6:430, 1987 
0:1:6:445, 2053 
0:1:6:461, 2150 
0:1:6:476, 2209 
0:1:6:491, 2315 
0:1:6:507, 2382 
0:1:6:523, 2394 
0:1:6:539, 2357 
0:1:6:555, 2306 
0:1:6:571, 2251 
0:1:6:587, 2206 
0:1:6:602, 2157 
0:1:6:618, 2107 
0:1:6:633, 2064 
0:1:6:648, 2048 
0:1:6:663, 2028 
0:1:6:679, 2017 
0:1:6:694, 2014 
0:1:6:710, 2013 
0:1:6:726, 2020 
0:1:6:741, 2031 
0:1:6:756, 2036 
0:1:6:773, 2027 
0:1:6:788, 2012 
0:1:6:804, 1997 
0:1:6:820, 1965 
0:1:6:835, 1928 
0:1:6:850, 1906 
0:1:6:866, 1877 
0:1:6:881, 1863 
0:1:6:896, 1830 
0:1:6:911, 1802 
0:1:6:927, 1781 
0:1:6:943, 1768 
0:1:6:958, 1755 
0:1:6:974, 1747 
0:1:6:989, 1744 
0:1:7:5, 1739 
0:1:7:20, 1734 
0:1:7:36, 1730 
0:1:7:51, 1723 
0:1:7:67, 1718 
0:1:7:82, 1714 
0:1:7:98, 1714 
0:1:7:113, 1719 
0:1:7:128, 1748 
0:1:7:144, 1817 
0:1:7:160, 1926 
0:1:7:174, 2026 
0:1:7:190, 2165 
0:1:7:204, 2259 
0:1:7:220, 2370 
0:1:7:236, 2428 
0:1:7:251, 2431 
0:1:7:267, 2394 
0:1:7:282, 2329 
0:1:7:297, 2305 
0:1:7:314, 2281 
0:1:7:329, 2257 
0:1:7:344, 2219 
0:1:7:360, 2167 
0:1:7:375, 2118 
0:1:7:390, 2075 
0:1:7:405, 2051 
0:1:7:421, 2031 
0:1:7:437, 2024 
0:1:7:452, 2032 
0:1:7:468, 2043 
0:1:7:483, 2044 
0:1:7:499, 2039 
0:1:7:515, 2026 
0:1:7:530, 2010 
0:1:7:546, 1993 
0:1:7:561, 1979 
0:1:7:577, 1944 
0:1:7:593, 1915 
0:1:7:609, 1886 
0:1:7:625, 1858 
0:1:7:640, 1838 
0:1:7:655, 1814 
0:1:7:670, 1787 
0:1:7:686, 1772 
0:1:7:702, 1761 
0:1:7:717, 1752 
0:1:7:732, 1749 
0:1:7:748, 1746 
0:1:7:764, 1742 
0:1:7:780, 1737 
0:1:7:795, 1733 
0:1:7:811, 1727 
0:1:7:826, 1724 
0:1:7:841, 1728 
0:1:7:857, 1771 
0:1:7:872, 1853 
0:1:7:888, 2009 
0:1:7:905, 2222 
0:1:7:920, 2313 
0:1:7:935, 2398 
0:1:7:951, 2442 
0:1:7:966, 2466 
0:1:7:982, 2443 
0:1:7:997, 2393 
0:1:8:12, 2331 
0:1:8:28, 2265 
0:1:8:43, 2198 
0:1:8:58, 2143 
0:1:8:74, 2088 
0:1:8:90, 2060 
0:1:8:105, 2043 
0:1:8:120, 2046 
0:1:8:135, 2057 
0:1:8:151, 2067 
0:1:8:166, 2071 
0:1:8:181, 2069 
0:1:8:197, 2058 
0:1:8:212, 2039 
0:1:8:227, 2014 
0:1:8:242, 1983 
0:1:8:258, 1942 
0:1:8:273, 1903 
0:1:8:289, 1881 
0:1:8:304, 1847 
0:1:8:320, 1817 
0:1:8:336, 1802 
0:1:8:351, 1780 
0:1:8:366, 1764 
0:1:8:381, 1755 
0:1:8:397, 1747 
0:1:8:412, 1743 
0:1:8:428, 1738 
0:1:8:443, 1735 
0:1:8:459, 1732 
0:1:8:474, 1727 
0:1:8:490, 1722 
0:1:8:506, 1713 
0:1:8:521, 1706 
0:1:8:536, 1710 
0:1:8:551, 1728 
0:1:8:567, 1787 
0:1:8:583, 1894 
0:1:8:598, 1962 
0:1:8:613, 2109 
0:1:8:629, 2250 
0:1:8:645, 2310 
0:1:8:661, 2429 
0:1:8:677, 2461 
0:1:8:692, 2448 
0:1:8:708, 2390 
0:1:8:723, 2324 
0:1:8:739, 2240 
0:1:8:755, 2152 
0:1:8:771, 2097 
0:1:8:787, 2040 
0:1:8:802, 2026 
0:1:8:817, 2024 
0:1:8:832, 2042 
0:1:8:847, 2061 
0:1:8:863, 2079 
0:1:8:879, 2090 
0:1:8:895, 2085 
0:1:8:911, 2063 
0:1:8:927, 2031 
0:1:8:943, 1989 
0:1:8:959, 1941 
0:1:8:974, 1901 
0:1:8:990, 1855 
0:1:9:5, 1834 
0:1:9:20, 1804 
0:1:9:36, 1776 
0:1:9:51, 1761 
0:1:9:67, 1750 
0:1:9:83, 1745 
0:1:9:99, 1739 
0:1:9:115, 1737 
0:1:9:131, 1735 
0:1:9:146, 1732 
0:1:9:162, 1741 
0:1:9:177, 1763 
0:1:9:193, 1879 
0:1:9:209, 2006 
0:1:9:225, 2187 
0:1:9:241, 2344 
0:1:9:257, 2455 
0:1:9:273, 2482 
0:1:9:289, 2467 
0:1:9:304, 2419 
0:1:9:320, 2381 
0:1:9:335, 2325 
0:1:9:351, 2252 
0:1:9:366, 2178 
0:1:9:381, 2111 
0:1:9:396, 2062 
0:1:9:411, 2040 
0:1:9:426, 2050 
0:1:9:442, 2062 
0:1:9:458, 2088 
0:1:9:473, 2094 
0:1:9:489, 2089 
0:1:9:504, 2076 
0:1:9:519, 2048 
0:1:9:534, 2011 
0:1:9:550, 1988 
0:1:9:567, 1944 
0:1:9:582, 1917 
0:1:9:598, 1892 
0:1:9:614, 1862 
0:1:9:630, 1835 
0:1:9:646, 1820 
0:1:9:662, 1802 
0:1:9:677, 1779 
0:1:9:693, 1767 
0:1:9:709, 1754 
0:1:9:724, 1745 
0:1:9:739, 1735 
0:1:9:754, 1728 
0:1:9:770, 1729 
0:1:9:785, 1739 
0:1:9:801, 1805 
0:1:9:816, 1942 
0:1:9:831, 2088 
0:1:9:846, 2300 
0:1:9:861, 2417 
0:1:9:877, 2477 
0:1:9:892, 2493 
0:1:9:908, 2474 
0:1:9:924, 2444 
0:1:9:940, 2357 
0:1:9:956, 2280 
0:1:9:971, 2204 
0:1:9:986, 2145 
0:1:10:2, 2083 
0:1:10:17, 2046 
0:1:10:32, 2040 
0:1:10:48, 2048 
0:1:10:64, 2066 
0:1:10:79, 2094 
0:1:10:95, 2111 
0:1:10:111, 2120 
0:1:10:126, 2114 
0:1:10:142, 2096 
0:1:10:158, 2061 
0:1:10:174, 2028 
0:1:10:189, 1992 
0:1:10:204, 1955 
0:1:10:219, 1908 
0:1:10:234, 1861 
0:1:10:250, 1819 
0:1:10:265, 1791 
0:1:10:281, 1773 
0:1:10:297, 1749 
0:1:10:312, 1740 
0:1:10:327, 1730 
0:1:10:343, 1728 
0:1:10:358, 1730 
0:1:10:374, 1735 
0:1:10:390, 1744 
0:1:10:405, 1764 
0:1:10:421, 1813 
0:1:10:437, 1877 
0:1:10:452, 1963 
0:1:10:468, 2066 
0:1:10:483, 2173 
0:1:10:498, 2275 
0:1:10:514, 2335 
0:1:10:530, 2440 
0:1:10:546, 2475 
0:1:10:561, 2486 
0:1:10:578, 2472 
0:1:10:594, 2445 
0:1:10:610, 2421 
0:1:10:625, 2378 
0:1:10:641, 2316 
0:1:10:656, 2248 
0:1:10:672, 2196 
0:1:10:688, 2127 
0:1:10:704, 2079 
0:1:10:719, 2039 
0:1:10:735, 2004 
0:1:10:751, 1990 
0:1:10:768, 1993 
0:1:10:783, 2012 
0:1:10:799, 2030 
0:1:10:815, 2049 
0:1:10:830, 2067 
0:1:10:846, 2076 
0:1:10:862, 2071 
0:1:10:878, 2059 
0:1:10:894, 2046 
0:1:10:909, 2029 
0:1:10:924, 2003 
0:1:10:940, 1973 
0:1:10:956, 1932 
0:1:10:971, 1882 
0:1:10:987, 1858 
0:1:11:3, 1829 
0:1:11:18, 1796 
0:1:11:33, 1769 
0:1:11:48, 1749 
0:1:11:64, 1732 
0:1:11:80, 1721 
0:1:11:96, 1714 
0:1:11:111, 1709 
0:1:11:127, 1709 
0:1:11:143, 1721 
0:1:11:158, 1749 
0:1:11:173, 1852 
0:1:11:189, 1947 
0:1:11:204, 2092 
0:1:11:220, 2239 
0:1:11:235, 2361 
0:1:11:250, 2453 
0:1:11:266, 2485 
0:1:11:282, 2475 
0:1:11:297, 2437 
0:1:11:313, 2369 
0:1:11:328, 2337 
0:1:11:344, 2285 
0:1:11:360, 2211 
0:1:11:375, 2156 
0:1:11:391, 2071 
0:1:11:407, 2020 
0:1:11:422, 1998 
0:1:11:438, 1990 
0:1:11:454, 2004 
0:1:11:470, 2043 
0:1:11:485, 2083 
0:1:11:501, 2112 
0:1:11:517, 2119 
0:1:11:532, 2105 
0:1:11:547, 2090 
0:1:11:562, 2078 
0:1:11:577, 2051 
0:1:11:593, 2020 
0:1:11:608, 1971 
0:1:11:623, 1929 
0:1:11:638, 1890 
0:1:11:653, 1861 
0:1:11:669, 1841 
0:1:11:685, 1814 
0:1:11:700, 1793 
0:1:11:715, 1784 
0:1:11:731, 1782 
0:1:11:747, 1787 
0:1:11:762, 1810 
0:1:11:777, 1851 
0:1:11:793, 1977 
0:1:11:809, 2191 
0:1:11:825, 2366 
0:1:11:841, 2482 
0:1:11:857, 2548 
0:1:11:872, 2549 
0:1:11:888, 2506 
0:1:11:904, 2452 
0:1:11:919, 2387 
0:1:11:935, 2316 
0:1:11:950, 2259 
0:1:11:966, 2203 
0:1:11:981, 2150 
0:1:11:997, 2102 
0:1:12:13, 2046 
0:1:12:28, 2032 
0:1:12:43, 2031 
0:1:12:59, 2047 
0:1:12:74, 2077 
0:1:12:89, 2093 
0:1:12:105, 2108 
0:1:12:121, 2111 
0:1:12:136, 2105 
0:1:12:152, 2098 
0:1:12:167, 2079 
0:1:12:183, 2061 
0:1:12:199, 2039 
0:1:12:216, 2017 
0:1:12:232, 1992 
0:1:12:248, 1967 
0:1:12:264, 1934 
0:1:12:279, 1918 
0:1:12:295, 1888 
0:1:12:311, 1867 
0:1:12:327, 1848 
0:1:12:342, 1831 
0:1:12:358, 1816 
0:1:12:373, 1799 
0:1:12:388, 1790 
0:1:12:405, 1776 
0:1:12:420, 1769 
0:1:12:436, 1766 
0:1:12:452, 1769 
0:1:12:467, 1785 
0:1:12:482, 1840 
0:1:12:498, 1940 
0:1:12:513, 2076 
0:1:12:528, 2225 
0:1:12:544, 2363 
0:1:12:559, 2458 
0:1:12:574, 2519 
0:1:12:589, 2542 
0:1:12:604, 2556 
0:1:12:619, 2548 
0:1:12:635, 2511 
0:1:12:650, 2469 
0:1:12:665, 2404 
0:1:12:681, 2349 
0:1:12:697, 2272 
0:1:12:713, 2194 
0:1:12:728, 2121 
0:1:12:744, 2050 
0:1:12:760, 2014 
0:1:12:775, 2013 
0:1:12:791, 2029 
0:1:12:806, 2046 
0:1:12:822, 2071 
0:1:12:838, 2083 
0:1:12:853, 2091 
0:1:12:869, 2085 
0:1:12:884, 2070 
0:1:12:898, 2045 
0:1:12:913, 2010 
0:1:12:929, 1970 
0:1:12:944, 1940 
0:1:12:960, 1907 
0:1:12:976, 1883 
0:1:12:992, 1858 
0:1:13:7, 1835 
0:1:13:23, 1822 
0:1:13:38, 1807 
0:1:13:54, 1790 
0:1:13:70, 1780 
0:1:13:86, 1779 
0:1:13:102, 1828 
0:1:13:118, 1983 
0:1:13:134, 2211 
0:1:13:149, 2425 
0:1:13:165, 2552 
0:1:13:180, 2586 
0:1:13:196, 2561 
0:1:13:211, 2497 
0:1:13:226, 2465 
0:1:13:241, 2413 
0:1:13:257, 2339 
0:1:13:273, 2281 
0:1:13:289, 2205 
0:1:13:305, 2119 
0:1:13:320, 2069 
0:1:13:336, 2052 
0:1:13:352, 2035 
0:1:13:367, 2036 
0:1:13:383, 2043 
0:1:13:398, 2063 
0:1:13:413, 2087 
0:1:13:429, 2097 
0:1:13:444, 2103 
0:1:13:460, 2099 
0:1:13:476, 2089 
0:1:13:490, 2062 
0:1:13:506, 2041 
0:1:13:522, 2002 
0:1:13:538, 1977 
0:1:13:554, 1952 
0:1:13:570, 1921 
0:1:13:586, 1900 
0:1:13:602, 1875 
0:1:13:617, 1851 
0:1:13:633, 1835 
0:1:13:648, 1820 
0:1:13:663, 1808 
0:1:13:679, 1793 
0:1:13:694, 1788 
0:1:13:710, 1784 
0:1:13:726, 1789 
0:1:13:742, 1789 
0:1:13:757, 1805 
0:1:13:773, 1836 
0:1:13:789, 1890 
0:1:13:805, 1968 
0:1:13:821, 2101 
0:1:13:837, 2211 
0:1:13:852, 2316 
0:1:13:867, 2432 
0:1:13:882, 2488 
0:1:13:897, 2527 
0:1:13:913, 2539 
0:1:13:929, 2500 
0:1:13:944, 2428 
0:1:13:960, 2359 
0:1:13:975, 2284 
0:1:13:990, 2186 
0:1:14:5, 2107 
0:1:14:21, 2042 
0:1:14:36, 1982 
0:1:14:52, 1962 
0:1:14:67, 1956 
0:1:14:83, 1960 
0:1:14:99, 1979 
0:1:14:114, 2004 
0:1:14:129, 2024 
0:1:14:145, 2043 
0:1:14:160, 2053 
0:1:14:175, 2056 
0:1:14:190, 2045 
0:1:14:206, 2007 
0:1:14:222, 1964 
0:1:14:238, 1907 
0:1:14:254, 1880 
0:1:14:268, 1854 
0:1:14:284, 1836 
0:1:14:299, 1789 
0:1:14:314, 1767 
0:1:14:329, 1741 
0:1:14:345, 1720 
0:1:14:360, 1698 
0:1:14:376, 1692 
0:1:14:392, 1690 
0:1:14:407, 1691 
0:1:14:422, 1695 
0:1:14:438, 1697 
0:1:14:454, 1718 
0:1:14:469, 1770 
0:1:14:484, 1867 
0:1:14:500, 1966 
0:1:14:515, 2156 
0:1:14:531, 2330 
0:1:14:546, 2421 
0:1:14:562, 2477 
0:1:14:577, 2505 
0:1:14:593, 2488 
0:1:14:609, 2457 
0:1:14:625, 2399 
0:1:14:640, 2365 
0:1:14:656, 2310 
0:1:14:671, 2271 
0:1:14:687, 2210 
0:1:14:702, 2169 
0:1:14:718, 2075 
0:1:14:733, 2018 
0:1:14:749, 1977 
0:1:14:764, 1975 
0:1:14:779, 1993 
0:1:14:795, 2013 
0:1:14:810, 2034 
0:1:14:826, 2058 
0:1:14:841, 2070 
0:1:14:856, 2072 
0:1:14:872, 2059 
0:1:14:889, 2039 
0:1:14:904, 2020 
0:1:14:920, 1985 
0:1:14:935, 1947 
0:1:14:951, 1919 
0:1:14:966, 1893 
0:1:14:981, 1864 
0:1:14:997, 1836 
0:1:15:13, 1821 
0:1:15:29, 1811 
0:1:15:44, 1807 
0:1:15:59, 1809 
0:1:15:75, 1815 
0:1:15:91, 1841 
0:1:15:106, 1894 
0:1:15:121, 1962 
0:1:15:136, 2051 
0:1:15:151, 2225 
0:1:15:167, 2356 
0:1:15:182, 2485 
0:1:15:198, 2524 
0:1:15:214, 2523 
0:1:15:229, 2501 
0:1:15:245, 2437 
0:1:15:260, 2367 
0:1:15:275, 2308 
0:1:15:290, 2205 
0:1:15:306, 2101 
0:1:15:321, 2032 
0:1:15:336, 2006 
0:1:15:352, 1985 
0:1:15:368, 1964 
0:1:15:384, 1966 
0:1:15:400, 1987 
0:1:15:416, 2019 
0:1:15:432, 2043 
0:1:15:447, 2063 
0:1:15:463, 2077 
0:1:15:479, 2082 
0:1:15:495, 2066 
0:1:15:510, 2041 
0:1:15:525, 2011 
0:1:15:541, 1987 
0:1:15:556, 1971 
0:1:15:572, 1950 
0:1:15:587, 1929 
0:1:15:603, 1901 
0:1:15:619, 1875 
0:1:15:635, 1850 
0:1:15:650, 1829 
0:1:15:665, 1814 
0:1:15:681, 1797 
0:1:15:697, 1782 
0:1:15:713, 1778 
0:1:15:729, 1781 
0:1:15:745, 1800 
0:1:15:760, 1843 
0:1:15:775, 1863 
0:1:15:789, 1941 
0:1:15:805, 2037 
0:1:15:821, 2179 
0:1:15:836, 2248 
0:1:15:852, 2392 
0:1:15:867, 2489 
0:1:15:883, 2490 
0:1:15:899, 2448 
0:1:15:914, 2393 
0:1:15:929, 2327 
0:1:15:945, 2213 
0:1:15:960, 2154 
0:1:15:976, 2062 
0:1:15:992, 1996 
0:1:16:8, 1965 
0:1:16:24, 1968 
0:1:16:39, 1995 
0:1:16:55, 2026 
0:1:16:70, 2036 
0:1:16:86, 2049 
0:1:16:102, 2050 
0:1:16:118, 2042 
0:1:16:133, 2031 
0:1:16:148, 2014 
0:1:16:164, 1997 
0:1:16:179, 1969 
0:1:16:194, 1953 
0:1:16:210, 1908 
0:1:16:226, 1872 
0:1:16:240, 1845 
0:1:16:256, 1821 
0:1:16:271, 1801 
0:1:16:287, 1779 
0:1:16:302, 1764 
0:1:16:318, 1752 
0:1:16:334, 1747 
0:1:16:350, 1751 
0:1:16:366, 1815 
0:1:16:381, 1887 
0:1:16:396, 1984 
0:1:16:412, 2178 
0:1:16:427, 2328 
0:1:16:443, 2422 
0:1:16:458, 2522 
0:1:16:473, 2551 
0:1:16:489, 2557 
0:1:16:504, 2540 
0:1:16:519, 2505 
0:1:16:535, 2427 
0:1:16:551, 2373 
0:1:16:567, 2299 
0:1:16:582, 2224 
0:1:16:597, 2187 
0:1:16:613, 2119 
0:1:16:628, 2075 
0:1:16:644, 2028 
0:1:16:660, 2014 
0:1:16:675, 2022 
0:1:16:691, 2051 
0:1:16:707, 2078 
0:1:16:722, 2095 
0:1:16:737, 2112 
0:1:16:753, 2115 
0:1:16:769, 2098 
0:1:16:784, 2067 
0:1:16:800, 2036 
0:1:16:816, 2001 
0:1:16:831, 1985 
0:1:16:847, 1958 
0:1:16:862, 1925 
0:1:16:878, 1880 
0:1:16:893, 1852 
0:1:16:908, 1822 
0:1:16:924, 1801 
0:1:16:940, 1779 
0:1:16:955, 1763 
0:1:16:971, 1753 
0:1:16:986, 1748 
0:1:17:2, 1766 
0:1:17:18, 1874 
0:1:17:34, 2004 
0:1:17:50, 2196 
0:1:17:66, 2400 
0:1:17:82, 2512 
0:1:17:98, 2538 
0:1:17:114, 2497 
0:1:17:129, 2443 
0:1:17:144, 2394 
0:1:17:160, 2324 
0:1:17:175, 2269 
0:1:17:190, 2178 
0:1:17:205, 2113 
0:1:17:221, 2043 
0:1:17:237, 2024 
0:1:17:252, 2024 
0:1:17:267, 2038 
0:1:17:283, 2061 
0:1:17:299, 2078 
0:1:17:315, 2092 
0:1:17:329, 2100 
0:1:17:346, 2101 
0:1:17:360, 2099 
0:1:17:375, 2081 
0:1:17:391, 2064 
0:1:17:406, 2036 
0:1:17:421, 2006 
0:1:17:437, 1974 
0:1:17:453, 1934 
0:1:17:469, 1913 
0:1:17:485, 1884 
0:1:17:500, 1858 
0:1:17:515, 1832 
0:1:17:531, 1809 
0:1:17:547, 1790 
0:1:17:562, 1778 
0:1:17:577, 1762 
0:1:17:592, 1757 
0:1:17:608, 1751 
0:1:17:623, 1776 
0:1:17:639, 1865 
0:1:17:654, 2060 
0:1:17:670, 2288 
0:1:17:686, 2413 
0:1:17:701, 2504 
0:1:17:717, 2525 
0:1:17:733, 2535 
0:1:17:748, 2524 
0:1:17:763, 2484 
0:1:17:779, 2441 
0:1:17:794, 2355 
0:1:17:810, 2280 
0:1:17:826, 2205 
0:1:17:841, 2129 
0:1:17:857, 2071 
0:1:17:872, 2039 
0:1:17:887, 2026 
0:1:17:903, 2015 
0:1:17:919, 2017 
0:1:17:935, 2023 
0:1:17:950, 2042 
0:1:17:966, 2058 
0:1:17:981, 2067 
0:1:17:997, 2080 
0:1:18:12, 2081 
0:1:18:27, 2079 
0:1:18:43, 2066 
0:1:18:59, 2032 
0:1:18:74, 2006 
0:1:18:90, 1993 
0:1:18:106, 1972 
0:1:18:122, 1951 
0:1:18:138, 1916 
0:1:18:154, 1895 
0:1:18:170, 1862 
0:1:18:185, 1850 
0:1:18:202, 1833 
0:1:18:217, 1812 
0:1:18:233, 1790 
0:1:18:248, 1769 
0:1:18:264, 1748 
0:1:18:279, 1743 
0:1:18:295, 1730 
0:1:18:311, 1736 
0:1:18:327, 1785 
0:1:18:342, 1871 
0:1:18:358, 1999 
0:1:18:374, 2074 
0:1:18:389, 2190 
0:1:18:405, 2300 
0:1:18:421, 2420 
0:1:18:437, 2494 
0:1:18:452, 2524 
0:1:18:467, 2526 
0:1:18:483, 2495 
0:1:18:498, 2443 
0:1:18:514, 2394 
0:1:18:530, 2341 
0:1:18:546, 2264 
0:1:18:561, 2224 
0:1:18:577, 2146 
0:1:18:593, 2109 
0:1:18:608, 2060 
0:1:18:624, 2013 
0:1:18:640, 1998 
0:1:18:656, 1986 
0:1:18:671, 1995 
0:1:18:687, 2010 
0:1:18:702, 2035 
0:1:18:717, 2056 
0:1:18:733, 2066 
0:1:18:748, 2071 
0:1:18:763, 2070 
0:1:18:779, 2058 
0:1:18:794, 2043 
0:1:18:810, 2024 
0:1:18:825, 1996 
0:1:18:840, 1974 
0:1:18:856, 1938 
0:1:18:872, 1917 
0:1:18:887, 1896 
0:1:18:903, 1875 
0:1:18:918, 1850 
0:1:18:934, 1822 
0:1:18:949, 1806 
0:1:18:964, 1792 
0:1:18:980, 1780 
0:1:18:995, 1765 
0:1:19:10, 1753 
0:1:19:26, 1751 
0:1:19:41, 1776 
0:1:19:57, 1847 
0:1:19:72, 1965 
0:1:19:88, 2077 
0:1:19:103, 2232 
0:1:19:119, 2399 
0:1:19:134, 2524 
0:1:19:150, 2523 
0:1:19:165, 2493 
0:1:19:181, 2436 
0:1:19:197, 2366 
0:1:19:212, 2268 
0:1:19:228, 2186 
0:1:19:244, 2080 
0:1:19:260, 2022 
0:1:19:277, 2002 
0:1:19:292, 2008 
0:1:19:308, 2024 
0:1:19:325, 2048 
0:1:19:340, 2060 
0:1:19:356, 2078 
0:1:19:372, 2082 
0:1:19:388, 2084 
0:1:19:403, 2073 
0:1:19:419, 2053 
0:1:19:434, 2019 
0:1:19:450, 1990 
0:1:19:466, 1968 
0:1:19:481, 1931 
0:1:19:496, 1911 
0:1:19:512, 1887 
0:1:19:528, 1869 
0:1:19:545, 1847 
0:1:19:560, 1832 
0:1:19:576, 1815 
0:1:19:592, 1803 
0:1:19:607, 1789 
0:1:19:622, 1776 
0:1:19:638, 1770 
0:1:19:654, 1768 
0:1:19:669, 1785 
0:1:19:685, 1822 
0:1:19:701, 1912 
0:1:19:716, 2081 
0:1:19:732, 2232 
0:1:19:747, 2365 
0:1:19:763, 2490 
0:1:19:778, 2521 
0:1:19:793, 2513 
0:1:19:809, 2487 
0:1:19:824, 2436 
0:1:19:840, 2390 
0:1:19:855, 2321 
0:1:19:870, 2229 
0:1:19:885, 2175 
0:1:19:900, 2108 
0:1:19:916, 2055 
0:1:19:931, 2021 
0:1:19:946, 2013 
0:1:19:962, 2018 
0:1:19:977, 2038 
0:1:19:992, 2062 
0:1:20:8, 2088 
0:1:20:23, 2094 
0:1:20:39, 2092 
0:1:20:56, 2071 
0:1:20:71, 2038 
0:1:20:87, 2006 
0:1:20:103, 1971 
0:1:20:118, 1946 
0:1:20:133, 1914 
0:1:20:149, 1879 
0:1:20:165, 1853 
0:1:20:181, 1825 
0:1:20:196, 1801 
0:1:20:211, 1785 
0:1:20:227, 1772 
0:1:20:242, 1761 
0:1:20:259, 1754 
0:1:20:274, 1752 
0:1:20:289, 1768 
0:1:20:305, 1832 
0:1:20:321, 1964 
0:1:20:336, 2107 
0:1:20:351, 2256 
0:1:20:367, 2410 
0:1:20:383, 2485 
0:1:20:399, 2521 
0:1:20:414, 2516 
0:1:20:430, 2492 
0:1:20:445, 2441 
0:1:20:461, 2377 
0:1:20:476, 2325 
0:1:20:491, 2253 
0:1:20:507, 2181 
0:1:20:523, 2117 
0:1:20:539, 2056 
0:1:20:555, 2029 
0:1:20:570, 2034 
0:1:20:586, 2052 
0:1:20:601, 2067 
0:1:20:616, 2090 
0:1:20:632, 2098 
0:1:20:647, 2100 
0:1:20:663, 2093 
0:1:20:678, 2075 
0:1:20:693, 2041 
0:1:20:709, 2009 
0:1:20:725, 1976 
0:1:20:740, 1952 
0:1:20:755, 1928 
0:1:20:771, 1905 
0:1:20:787, 1873 
0:1:20:802, 1849 
0:1:20:818, 1821 
0:1:20:833, 1806 
0:1:20:849, 1797 
0:1:20:864, 1790 
0:1:20:880, 1784 
0:1:20:894, 1778 
0:1:20:910, 1773 
0:1:20:926, 1772 
0:1:20:942, 1786 
0:1:20:957, 1815 
0:1:20:973, 1943 
0:1:20:988, 2075 
0:1:21:4, 2253 
0:1:21:19, 2375 
0:1:21:35, 2483 
0:1:21:50, 2499 
0:1:21:66, 2502 
0:1:21:81, 2489 
0:1:21:96, 2445 
0:1:21:111, 2387 
0:1:21:126, 2336 
0:1:21:142, 2283 
0:1:21:158, 2223 
0:1:21:173, 2152 
0:1:21:188, 2077 
0:1:21:204, 2031 
0:1:21:219, 2021 
0:1:21:235, 2034 
0:1:21:251, 2066 
0:1:21:267, 2091 
0:1:21:282, 2108 
0:1:21:298, 2113 
0:1:21:314, 2106 
0:1:21:329, 2090 
0:1:21:344, 2065 
0:1:21:360, 2044 
0:1:21:375, 2005 
0:1:21:391, 1973 
0:1:21:407, 1944 
0:1:21:423, 1916 
0:1:21:439, 1893 
0:1:21:454, 1875 
0:1:21:470, 1858 
0:1:21:485, 1848 
0:1:21:501, 1840 
0:1:21:517, 1831 
0:1:21:531, 1825 
0:1:21:547, 1817 
0:1:21:562, 1813 
0:1:21:577, 1812 
0:1:21:592, 1812 
0:1:21:608, 1819 
0:1:21:624, 1836 
0:1:21:639, 1890 
0:1:21:655, 1985 
0:1:21:670, 2113 
0:1:21:686, 2248 
0:1:21:701, 2364 
0:1:21:717, 2454 
0:1:21:733, 2482 
0:1:21:749, 2480 
0:1:21:764, 2444 
0:1:21:779, 2388 
0:1:21:794, 2320 
0:1:21:809, 2247 
0:1:21:824, 2172 
0:1:21:840, 2101 
0:1:21:855, 2046 
0:1:21:871, 2010 
0:1:21:886, 2000 
0:1:21:902, 2008 
0:1:21:917, 2024 
0:1:21:933, 2051 
0:1:21:948, 2074 
0:1:21:964, 2089 
0:1:21:981, 2093 
0:1:21:995, 2088 
0:1:22:11, 2066 
0:1:22:27, 2048 
0:1:22:43, 2011 
0:1:22:59, 1996 
0:1:22:74, 1965 
0:1:22:90, 1949 
0:1:22:106, 1905 
0:1:22:122, 1881 
0:1:22:137, 1860 
0:1:22:153, 1843 
0:1:22:168, 1831 
0:1:22:184, 1819 
0:1:22:200, 1803 
0:1:22:215, 1795 
0:1:22:230, 1788 
0:1:22:246, 1784 
0:1:22:262, 1784 
0:1:22:277, 1793 
0:1:22:292, 1826 
0:1:22:308, 1876 
0:1:22:324, 1951 
0:1:22:339, 2047 
0:1:22:355, 2189 
0:1:22:371, 2353 
0:1:22:387, 2460 
0:1:22:402, 2506 
0:1:22:417, 2492 
0:1:22:433, 2448 
0:1:22:448, 2370 
0:1:22:464, 2302 
0:1:22:479, 2231 
0:1:22:495, 2178 
0:1:22:511, 2112 
0:1:22:527, 2071 
0:1:22:542, 2041 
0:1:22:558, 2022 
0:1:22:574, 2021 
0:1:22:589, 2031 
0:1:22:605, 2055 
0:1:22:621, 2087 
0:1:22:637, 2104 
0:1:22:652, 2110 
0:1:22:667, 2107 
0:1:22:683, 2097 
0:1:22:698, 2083 
0:1:22:713, 2065 
0:1:22:729, 2035 
0:1:22:745, 2010 
0:1:22:760, 1987 
0:1:22:776, 1947 
0:1:22:792, 1918 
0:1:22:807, 1893 
0:1:22:822, 1871 
0:1:22:838, 1858 
0:1:22:854, 1841 
0:1:22:870, 1830 
0:1:22:886, 1823 
0:1:22:901, 1816 
0:1:22:916, 1813 
0:1:22:932, 1808 
0:1:22:948, 1805 
0:1:22:964, 1803 
0:1:22:980, 1803 
0:1:22:995, 1815 
0:1:23:11, 1869 
0:1:23:27, 1961 
0:1:23:43, 2126 
0:1:23:58, 2197 
0:1:23:74, 2362 
0:1:23:89, 2390 
0:1:23:105, 2488 
0:1:23:121, 2526 
0:1:23:137, 2511 
0:1:23:153, 2482 
0:1:23:169, 2426 
0:1:23:184, 2357 
0:1:23:200, 2268 
0:1:23:216, 2198 
0:1:23:231, 2117 
0:1:23:247, 2068 
0:1:23:263, 2038 
0:1:23:278, 2035 
0:1:23:294, 2050 
0:1:23:310, 2076 
0:1:23:326, 2097 
0:1:23:341, 2111 
0:1:23:356, 2115 
0:1:23:372, 2107 
0:1:23:388, 2091 
0:1:23:404, 2055 
0:1:23:419, 2016 
0:1:23:435, 1974 
0:1:23:450, 1941 
0:1:23:466, 1918 
0:1:23:481, 1896 
0:1:23:497, 1870 
0:1:23:512, 1864 
0:1:23:528, 1849 
0:1:23:543, 1835 
0:1:23:559, 1823 
0:1:23:575, 1817 
0:1:23:591, 1808 
0:1:23:607, 1804 
0:1:23:622, 1795 
0:1:23:638, 1790 
0:1:23:653, 1787 
0:1:23:670, 1785 
0:1:23:686, 1782 
0:1:23:701, 1778 
0:1:23:717, 1773 
0:1:23:733, 1769 
0:1:23:749, 1773 
0:1:23:764, 1783 
0:1:23:780, 1813 
0:1:23:796, 1869 
0:1:23:812, 1982 
0:1:23:827, 2125 
0:1:23:843, 2268 
0:1:23:858, 2359 
0:1:23:874, 2459 
0:1:23:890, 2499 
0:1:23:905, 2489 
0:1:23:921, 2440 
0:1:23:936, 2383 
0:1:23:952, 2318 
0:1:23:968, 2267 
0:1:23:983, 2197 
0:1:23:998, 2146 
0:1:24:14, 2100 
0:1:24:30, 2054 
0:1:24:44, 2027 
0:1:24:60, 2026 
0:1:24:76, 2043 
0:1:24:92, 2067 
0:1:24:107, 2092 
0:1:24:123, 2112 
0:1:24:139, 2116 
0:1:24:154, 2105 
0:1:24:170, 2076 
0:1:24:186, 2045 
0:1:24:202, 2020 
0:1:24:217, 1976 
0:1:24:233, 1936 
0:1:24:248, 1914 
0:1:24:263, 1881 
0:1:24:278, 1858 
0:1:24:294, 1838 
0:1:24:310, 1822 
0:1:24:325, 1811 
0:1:24:339, 1807 
0:1:24:354, 1802 
0:1:24:371, 1798 
0:1:24:386, 1797 
0:1:24:401, 1796 
0:1:24:416, 1794 
0:1:24:432, 1793 
0:1:24:448, 1790 
0:1:24:464, 1787 
0:1:24:479, 1784 
0:1:24:495, 1789 
0:1:24:511, 1817 
0:1:24:526, 1863 
0:1:24:543, 1964 
0:1:24:558, 2096 
0:1:24:573, 2203 
0:1:24:589, 2237 
0:1:24:604, 2334 
0:1:24:620, 2412 
0:1:24:635, 2478 
0:1:24:651, 2507 
0:1:24:665, 2503 
0:1:24:681, 2472 
0:1:24:697, 2420 
0:1:24:713, 2342 
0:1:24:729, 2273 
0:1:24:744, 2183 
0:1:24:760, 2100 
0:1:24:776, 2041 
0:1:24:791, 2021 
0:1:24:807, 2023 
0:1:24:822, 2042 
0:1:24:838, 2061 
0:1:24:853, 2081 
0:1:24:869, 2097 
0:1:24:885, 2108 
0:1:24:900, 2112 
0:1:24:915, 2105 
0:1:24:931, 2093 
0:1:24:947, 2076 
0:1:24:962, 2050 
0:1:24:978, 2013 
0:1:24:994, 1975 
0:1:25:9, 1947 
0:1:25:24, 1921 
0:1:25:39, 1889 
0:1:25:54, 1872 
0:1:25:69, 1858 
0:1:25:84, 1850 
0:1:25:100, 1839 
0:1:25:115, 1827 
0:1:25:131, 1818 
0:1:25:147, 1811 
0:1:25:162, 1807 
0:1:25:177, 1800 
0:1:25:193, 1794 
0:1:25:209, 1792 
0:1:25:225, 1795 
0:1:25:240, 1816 
0:1:25:255, 1871 
0:1:25:270, 1915 
0:1:25:286, 1998 
0:1:25:302, 2165 
0:1:25:317, 2264 
0:1:25:333, 2349 
0:1:25:349, 2454 
0:1:25:364, 2475 
0:1:25:380, 2469 
0:1:25:396, 2409 
0:1:25:412, 2365 
0:1:25:427, 2298 
0:1:25:443, 2209 
0:1:25:458, 2138 
0:1:25:474, 2072 
0:1:25:489, 2034 
0:1:25:505, 1998 
0:1:25:520, 1987 
0:1:25:536, 1989 
0:1:25:551, 2002 
0:1:25:567, 2026 
0:1:25:582, 2053 
0:1:25:598, 2070 
0:1:25:614, 2079 
0:1:25:630, 2080 
0:1:25:645, 2072 
0:1:25:661, 2052 
0:1:25:676, 2032 
0:1:25:692, 2010 
0:1:25:708, 1986 
0:1:25:723, 1953 
0:1:25:739, 1913 
0:1:25:754, 1883 
0:1:25:770, 1847 
0:1:25:786, 1823 
0:1:25:802, 1799 
0:1:25:818, 1788 
0:1:25:834, 1781 
0:1:25:850, 1774 
0:1:25:865, 1770 
0:1:25:881, 1769 
0:1:25:896, 1766 
0:1:25:912, 1763 
0:1:25:927, 1761 
0:1:25:942, 1768 
0:1:25:957, 1801 
0:1:25:973, 1933 
0:1:25:988, 2108 
0:1:26:4, 2289 
0:1:26:20, 2439 
0:1:26:36, 2499 
0:1:26:52, 2508 
0:1:26:68, 2487 
0:1:26:84, 2465 
0:1:26:99, 2453 
0:1:26:115, 2410 
0:1:26:130, 2361 
0:1:26:146, 2306 
0:1:26:162, 2236 
0:1:26:177, 2167 
0:1:26:193, 2089 
0:1:26:209, 2043 
0:1:26:224, 2019 
0:1:26:240, 2017 
0:1:26:255, 2029 
0:1:26:271, 2055 
0:1:26:287, 2073 
0:1:26:302, 2090 
0:1:26:318, 2102 
0:1:26:334, 2100 
0:1:26:349, 2093 
0:1:26:365, 2082 
0:1:26:381, 2059 
0:1:26:397, 2031 
0:1:26:412, 1995 
0:1:26:429, 1949 
0:1:26:445, 1916 
0:1:26:460, 1882 
0:1:26:476, 1866 
0:1:26:492, 1851 
0:1:26:507, 1837 
0:1:26:522, 1822 
0:1:26:538, 1813 
0:1:26:554, 1803 
0:1:26:570, 1795 
0:1:26:586, 1788 
0:1:26:601, 1782 
0:1:26:617, 1779 
0:1:26:632, 1778 
0:1:26:647, 1777 
0:1:26:662, 1774 
0:1:26:678, 1773 
0:1:26:694, 1777 
0:1:26:710, 1794 
0:1:26:725, 1833 
0:1:26:741, 1900 
0:1:26:757, 2029 
0:1:26:773, 2184 
0:1:26:789, 2298 
0:1:26:804, 2425 
0:1:26:820, 2521 
0:1:26:835, 2549 
0:1:26:850, 2550 
0:1:26:866, 2517 
0:1:26:882, 2464 
0:1:26:898, 2418 
0:1:26:914, 2368 
0:1:26:930, 2316 
0:1:26:946, 2244 
0:1:26:962, 2155 
0:1:26:977, 2085 
0:1:26:993, 2048 
0:1:27:9, 2051 
0:1:27:24, 2071 
0:1:27:40, 2100 
0:1:27:56, 2117 
0:1:27:72, 2120 
0:1:27:87, 2112 
0:1:27:102, 2086 
0:1:27:118, 2055 
0:1:27:134, 2017 
0:1:27:150, 1967 
0:1:27:166, 1914 
0:1:27:182, 1874 
0:1:27:197, 1841 
0:1:27:213, 1813 
0:1:27:229, 1791 
0:1:27:245, 1775 
0:1:27:260, 1763 
0:1:27:275, 1753 
0:1:27:291, 1753 
0:1:27:307, 1755 
0:1:27:323, 1751 
0:1:27:339, 1746 
0:1:27:355, 1777 
0:1:27:371, 1911 
0:1:27:386, 1978 
0:1:27:402, 2204 
0:1:27:418, 2340 
0:1:27:434, 2452 
0:1:27:450, 2502 
0:1:27:466, 2483 
0:1:27:481, 2420 
0:1:27:497, 2327 
0:1:27:513, 2222 
0:1:27:528, 2169 
0:1:27:544, 2102 
0:1:27:559, 2039 
0:1:27:574, 2016 
0:1:27:590, 2014 
0:1:27:605, 2032 
0:1:27:620, 2067 
0:1:27:636, 2095 
0:1:27:652, 2122 
0:1:27:668, 2124 
0:1:27:683, 2103 
0:1:27:699, 2055 
0:1:27:715, 2018 
0:1:27:730, 1979 
0:1:27:746, 1941 
0:1:27:761, 1909 
0:1:27:776, 1877 
0:1:27:792, 1844 
0:1:27:808, 1816 
0:1:27:824, 1796 
0:1:27:840, 1776 
0:1:27:856, 1759 
0:1:27:872, 1752 
0:1:27:887, 1755 
0:1:27:903, 1762 
0:1:27:919, 1768 
0:1:27:934, 1773 
0:1:27:949, 1802 
0:1:27:964, 1909 
0:1:27:980, 2097 
0:1:27:996, 2308 
0:1:28:11, 2455 
0:1:28:27, 2521 
0:1:28:43, 2504 
0:1:28:59, 2444 
0:1:28:75, 2381 
0:1:28:90, 2308 
0:1:28:106, 2172 
0:1:28:122, 2105 
0:1:28:137, 2076 
0:1:28:153, 2044 
0:1:28:168, 2020 
0:1:28:184, 2021 
0:1:28:199, 2040 
0:1:28:215, 2066 
0:1:28:231, 2080 
0:1:28:247, 2074 
0:1:28:263, 2053 
0:1:28:278, 2013 
0:1:28:293, 1977 
0:1:28:309, 1938 
0:1:28:325, 1899 
0:1:28:341, 1878 
0:1:28:356, 1859 
0:1:28:371, 1836 
0:1:28:386, 1820 
0:1:28:402, 1804 
0:1:28:418, 1788 
0:1:28:433, 1774 
0:1:28:449, 1763 
0:1:28:464, 1757 
0:1:28:479, 1764 
0:1:28:494, 1805 
0:1:28:510, 1911 
0:1:28:526, 2115 
0:1:28:542, 2325 
0:1:28:558, 2435 
0:1:28:573, 2487 
0:1:28:588, 2492 
0:1:28:604, 2463 
0:1:28:620, 2384 
0:1:28:636, 2305 
0:1:28:652, 2200 
0:1:28:667, 2129 
0:1:28:682, 2068 
0:1:28:698, 2025 
0:1:28:713, 2006 
0:1:28:728, 2009 
0:1:28:744, 2039 
0:1:28:759, 2066 
0:1:28:774, 2089 
0:1:28:789, 2098 
0:1:28:805, 2096 
0:1:28:821, 2080 
0:1:28:837, 2057 
0:1:28:853, 2026 
0:1:28:868, 2002 
0:1:28:884, 1978 
0:1:28:899, 1934 
0:1:28:915, 1899 
0:1:28:930, 1868 
0:1:28:946, 1842 
0:1:28:962, 1816 
0:1:28:978, 1798 
0:1:28:994, 1781 
0:1:29:9, 1772 
0:1:29:25, 1767 
0:1:29:41, 1760 
0:1:29:57, 1756 
0:1:29:73, 1759 
0:1:29:88, 1787 
0:1:29:104, 1852 
0:1:29:120, 1962 
0:1:29:135, 2103 
0:1:29:151, 2284 
0:1:29:166, 2456 
0:1:29:181, 2493 
0:1:29:197, 2501 
0:1:29:212, 2470 
0:1:29:228, 2418 
0:1:29:243, 2354 
0:1:29:259, 2267 
0:1:29:274, 2179 
0:1:29:289, 2115 
0:1:29:304, 2066 
0:1:29:320, 2031 
0:1:29:336, 2025 
0:1:29:351, 2030 
0:1:29:367, 2049 
0:1:29:383, 2076 
0:1:29:398, 2096 
0:1:29:418, 2108 
0:1:29:429, 2116 
0:1:29:444, 2124 
0:1:29:460, 2123 
0:1:29:475, 2097 
0:1:29:490, 2075 
0:1:29:506, 2008 
0:1:29:522, 1966 
0:1:29:537, 1912 
0:1:29:553, 1860 
0:1:29:569, 1826 
0:1:29:584, 1810 
0:1:29:600, 1798 
0:1:29:616, 1787 
0:1:29:632, 1784 
0:1:29:647, 1780 
0:1:29:662, 1779 
0:1:29:678, 1780 
0:1:29:694, 1780 
0:1:29:710, 1789 
0:1:29:725, 1827 
0:1:29:740, 1918 
0:1:29:756, 2066 
0:1:29:771, 2238 
0:1:29:786, 2407 
0:1:29:801, 2491 
0:1:29:817, 2472 
0:1:29:833, 2437 
0:1:29:849, 2357 
0:1:29:864, 2287 
0:1:29:879, 2211 
0:1:29:894, 2135 
0:1:29:910, 2053 
0:1:29:925, 2004 
0:1:29:940, 1977 
0:1:29:956, 1981 
0:1:29:972, 2024 
0:1:29:988, 2059 
0:1:30:4, 2091 
0:1:30:19, 2106 
0:1:30:34, 2115 
0:1:30:50, 2116 
0:1:30:66, 2114 
0:1:30:82, 2105 
0:1:30:97, 2095 
0:1:30:113, 2077 
0:1:30:129, 2057 
0:1:30:144, 2037 
0:1:30:159, 2017 
0:1:30:175, 1988 
0:1:30:190, 1973 
0:1:30:206, 1943 
0:1:30:222, 1912 
0:1:30:237, 1874 
0:1:30:253, 1845 
0:1:30:269, 1818 
0:1:30:285, 1792 
0:1:30:300, 1771 
0:1:30:316, 1754 
0:1:30:332, 1741 
0:1:30:348, 1728 
0:1:30:364, 1710 
0:1:30:379, 1701 
0:1:30:394, 1689 
0:1:30:410, 1686 
0:1:30:425, 1696 
0:1:30:440, 1726 
0:1:30:456, 1811 
0:1:30:471, 1944 
0:1:30:487, 2060 
0:1:30:503, 2217 
0:1:30:518, 2351 
0:1:30:534, 2459 
0:1:30:550, 2501 
0:1:30:565, 2502 
0:1:30:581, 2480 
0:1:30:596, 2457 
0:1:30:612, 2400 
0:1:30:628, 2348 
0:1:30:643, 2291 
0:1:30:658, 2229 
0:1:30:674, 2166 
0:1:30:689, 2106 
0:1:30:704, 2057 
0:1:30:720, 2009 
0:1:30:736, 1987 
0:1:30:752, 1985 
0:1:30:768, 2001 
0:1:30:783, 2013 
0:1:30:799, 2044 
0:1:30:815, 2061 
0:1:30:831, 2073 
0:1:30:847, 2080 
0:1:30:862, 2080 
0:1:30:878, 2074 
0:1:30:893, 2059 
0:1:30:908, 2032 
0:1:30:923, 2016 
0:1:30:939, 1989 
0:1:30:956, 1962 
0:1:30:971, 1952 
0:1:30:987, 1926 
0:1:31:2, 1900 
0:1:31:17, 1884 
0:1:31:32, 1855 
0:1:31:48, 1842 
0:1:31:64, 1836 
0:1:31:80, 1824 
0:1:31:98, 1819 
0:1:31:113, 1810 
0:1:31:127, 1802 
0:1:31:143, 1795 
0:1:31:158, 1785 
0:1:31:174, 1778 
0:1:31:189, 1771 
0:1:31:204, 1765 
0:1:31:220, 1763 
0:1:31:235, 1762 
0:1:31:251, 1761 
0:1:31:266, 1764 
0:1:31:282, 1767 
0:1:31:298, 1775 
0:1:31:314, 1801 
0:1:31:330, 1838 
0:1:31:346, 1899 
0:1:31:361, 1981 
0:1:31:377, 2114 
0:1:31:393, 2149 
0:1:31:408, 2217 
0:1:31:424, 2282 
0:1:31:440, 2364 
0:1:31:455, 2387 
0:1:31:472, 2456 
0:1:31:487, 2484 
0:1:31:503, 2486 
0:1:31:519, 2456 
0:1:31:535, 2388 
0:1:31:551, 2341 
0:1:31:566, 2291 
0:1:31:582, 2257 
0:1:31:599, 2187 
0:1:31:614, 2133 
0:1:31:629, 2100 
0:1:31:645, 2046 
0:1:31:661, 2026 
0:1:31:676, 2008 
0:1:31:692, 2002 
0:1:31:708, 2001 
0:1:31:722, 2001 
0:1:31:738, 2010 
0:1:31:754, 2026 
0:1:31:770, 2040 
0:1:31:785, 2067 
0:1:31:801, 2089 
0:1:31:816, 2099 
0:1:31:831, 2098 
0:1:31:847, 2086 
0:1:31:862, 2077 
0:1:31:877, 2044 
0:1:31:893, 2013 
0:1:31:908, 1979 
0:1:31:923, 1944 
0:1:31:939, 1917 
0:1:31:954, 1894 
0:1:31:970, 1863 
0:1:31:985, 1844 
0:1:32:0, 1832 
0:1:32:15, 1821 
0:1:32:31, 1796 
0:1:32:46, 1783 
0:1:32:62, 1772 
0:1:32:78, 1763 
0:1:32:93, 1760 
0:1:32:108, 1758 
0:1:32:124, 1757 
0:1:32:139, 1757 
0:1:32:155, 1760 
0:1:32:171, 1765 
0:1:32:187, 1790 
0:1:32:203, 1829 
0:1:32:219, 1922 
0:1:32:234, 2095 
0:1:32:250, 2246 
0:1:32:265, 2407 
0:1:32:281, 2506 
0:1:32:296, 2540 
0:1:32:312, 2526 
0:1:32:327, 2477 
0:1:32:342, 2375 
0:1:32:358, 2298 
0:1:32:374, 2218 
0:1:32:390, 2139 
0:1:32:406, 2083 
0:1:32:421, 2050 
0:1:32:437, 2007 
0:1:32:453, 1970 
0:1:32:469, 1959 
0:1:32:484, 1967 
0:1:32:500, 1992 
0:1:32:515, 2003 
0:1:32:531, 2022 
0:1:32:547, 2033 
0:1:32:562, 2036 
0:1:32:577, 2026 
0:1:32:593, 2014 
0:1:32:609, 1992 
0:1:32:624, 1972 
0:1:32:640, 1951 
0:1:32:656, 1929 
0:1:32:671, 1908 
0:1:32:687, 1887 
0:1:32:703, 1874 
0:1:32:719, 1856 
0:1:32:734, 1851 
0:1:32:749, 1829 
0:1:32:765, 1813 
0:1:32:780, 1792 
0:1:32:795, 1770 
0:1:32:811, 1763 
0:1:32:826, 1754 
0:1:32:841, 1749 
0:1:32:856, 1742 
0:1:32:872, 1737 
0:1:32:888, 1732 
0:1:32:904, 1729 
0:1:32:920, 1726 
0:1:32:935, 1724 
0:1:32:951, 1731 
0:1:32:967, 1784 
0:1:32:983, 1917 
0:1:32:999, 2073 
0:1:33:14, 2199 
0:1:33:29, 2353 
0:1:33:45, 2485 
0:1:33:61, 2558 
0:1:33:76, 2585 
0:1:33:92, 2577 
0:1:33:108, 2531 
0:1:33:124, 2489 
0:1:33:140, 2425 
0:1:33:155, 2371 
0:1:33:171, 2254 
0:1:33:187, 2175 
0:1:33:202, 2101 
0:1:33:218, 2058 
0:1:33:233, 2010 
0:1:33:248, 1991 
0:1:33:264, 1984 
0:1:33:280, 1980 
0:1:33:296, 1959 
0:1:33:312, 1927 
0:1:33:328, 1882 
0:1:33:343, 1831 
0:1:33:358, 1790 
0:1:33:373, 1750 
0:1:33:388, 1716 
0:1:33:404, 1701 
0:1:33:420, 1673 
0:1:33:436, 1648 
0:1:33:451, 1627 
0:1:33:466, 1610 
0:1:33:481, 1589 
0:1:33:496, 1577 
0:1:33:512, 1568 
0:1:33:527, 1566 
0:1:33:542, 1566 
0:1:33:558, 1563 
0:1:33:574, 1557 
0:1:33:590, 1555 
0:1:33:605, 1567 
0:1:33:621, 1651 
0:1:33:637, 1743 
0:1:33:653, 1906 
0:1:33:668, 2136 
0:1:33:683, 2335 
0:1:33:699, 2484 
0:1:33:715, 2536 
0:1:33:731, 2531 
0:1:33:747, 2506 
0:1:33:763, 2455 
0:1:33:779, 2375 
0:1:33:795, 2282 
0:1:33:811, 2177 
0:1:33:827, 2071 
0:1:33:843, 2011 
0:1:33:859, 1925 
0:1:33:875, 1876 
0:1:33:890, 1844 
0:1:33:906, 1839 
0:1:33:922, 1849 
0:1:33:938, 1864 
0:1:33:954, 1870 
0:1:33:970, 1864 
0:1:33:985, 1841 
0:1:34:0, 1800 
0:1:34:15, 1751 
0:1:34:30, 1707 
0:1:34:46, 1679 
0:1:34:61, 1658 
0:1:34:77, 1643 
0:1:34:93, 1631 
0:1:34:109, 1612 
0:1:34:124, 1595 
0:1:34:140, 1582 
0:1:34:155, 1574 
0:1:34:170, 1571 
0:1:34:186, 1566 
0:1:34:201, 1558 
0:1:34:217, 1561 
0:1:34:232, 1600 
0:1:34:247, 1701 
0:1:34:263, 1817 
0:1:34:278, 2050 
0:1:34:293, 2271 
0:1:34:309, 2447 
0:1:34:324, 2509 
0:1:34:339, 2527 
0:1:34:355, 2516 
0:1:34:371, 2480 
0:1:34:386, 2426 
0:1:34:401, 2324 
0:1:34:417, 2249 
0:1:34:432, 2150 
0:1:34:448, 2043 
0:1:34:463, 2006 
0:1:34:478, 1975 
0:1:34:493, 1978 
0:1:34:509, 2001 
0:1:34:526, 2028 
0:1:34:542, 2050 
0:1:34:558, 2062 
0:1:34:574, 2064 
0:1:34:590, 2051 
0:1:34:605, 2022 
0:1:34:621, 1970 
0:1:34:637, 1912 
0:1:34:653, 1861 
0:1:34:669, 1835 
0:1:34:684, 1818 
0:1:34:700, 1794 
0:1:34:715, 1766 
0:1:34:731, 1753 
0:1:34:746, 1728 
0:1:34:762, 1711 
0:1:34:778, 1694 
0:1:34:794, 1671 
0:1:34:810, 1645 
0:1:34:826, 1621 
0:1:34:841, 1601 
0:1:34:857, 1588 
0:1:34:872, 1578 
0:1:34:888, 1574 
0:1:34:903, 1577 
0:1:34:918, 1598 
0:1:34:934, 1676 
0:1:34:950, 1823 
0:1:34:965, 2019 
0:1:34:980, 2274 
0:1:34:996, 2443 
0:1:35:12, 2594 
0:1:35:27, 2637 
0:1:35:42, 2628 
0:1:35:58, 2604 
0:1:35:73, 2567 
0:1:35:89, 2539 
0:1:35:104, 2493 
0:1:35:119, 2407 
0:1:35:134, 2331 
0:1:35:149, 2228 
0:1:35:165, 2103 
0:1:35:181, 2014 
0:1:35:197, 1958 
0:1:35:213, 1892 
0:1:35:229, 1843 
0:1:35:244, 1804 
0:1:35:260, 1777 
0:1:35:276, 1740 
0:1:35:292, 1695 
0:1:35:307, 1656 
0:1:35:322, 1615 
0:1:35:338, 1569 
0:1:35:354, 1528 
0:1:35:369, 1498 
0:1:35:385, 1463 
0:1:35:401, 1433 
0:1:35:417, 1401 
0:1:35:432, 1374 
0:1:35:447, 1346 
0:1:35:463, 1331 
0:1:35:479, 1349 
0:1:35:495, 1457 
0:1:35:511, 1631 
0:1:35:526, 1746 
0:1:35:541, 2073 
0:1:35:557, 2266 
0:1:35:573, 2593 
0:1:35:589, 2697 
0:1:35:605, 2744 
0:1:35:620, 2704 
0:1:35:636, 2653 
0:1:35:652, 2557 
0:1:35:668, 2467 
0:1:35:683, 2373 
0:1:35:698, 2265 
0:1:35:714, 2188 
0:1:35:729, 2159 
0:1:35:744, 2143 
0:1:35:760, 2135 
0:1:35:776, 2134 
0:1:35:791, 2122 
0:1:35:807, 2103 
0:1:35:823, 2070 
0:1:35:839, 2037 
0:1:35:855, 1995 
0:1:35:871, 1949 
0:1:35:887, 1889 
0:1:35:903, 1840 
0:1:35:919, 1792 
0:1:35:935, 1733 
0:1:35:951, 1668 
0:1:35:967, 1603 
0:1:35:982, 1539 
0:1:35:998, 1491 
0:1:36:14, 1435 
0:1:36:30, 1430 
0:1:36:46, 1537 
0:1:36:62, 1780 
0:1:36:77, 2094 
0:1:36:92, 2283 
0:1:36:108, 2481 
0:1:36:124, 2572 
0:1:36:139, 2599 
0:1:36:154, 2587 
0:1:36:170, 2536 
0:1:36:185, 2444 
0:1:36:201, 2350 
0:1:36:216, 2233 
0:1:36:231, 2145 
0:1:36:247, 2061 
0:1:36:263, 2007 
0:1:36:278, 1982 
0:1:36:293, 1970 
0:1:36:309, 1956 
0:1:36:324, 1936 
0:1:36:340, 1904 
0:1:36:356, 1873 
0:1:36:372, 1837 
0:1:36:388, 1796 
0:1:36:403, 1755 
0:1:36:419, 1714 
0:1:36:434, 1676 
0:1:36:449, 1630 
0:1:36:465, 1588 
0:1:36:481, 1541 
0:1:36:497, 1512 
0:1:36:512, 1496 
0:1:36:528, 1533 
0:1:36:544, 1686 
0:1:36:559, 1809 
0:1:36:575, 2006 
0:1:36:590, 2157 
0:1:36:606, 2458 
0:1:36:622, 2552 
0:1:36:638, 2576 
0:1:36:653, 2549 
0:1:36:669, 2477 
0:1:36:685, 2386 
0:1:36:700, 2282 
0:1:36:715, 2197 
0:1:36:730, 2113 
0:1:36:745, 2057 
0:1:36:761, 2029 
0:1:36:778, 2019 
0:1:36:794, 2014 
0:1:36:809, 2008 
0:1:36:824, 2001 
0:1:36:839, 1977 
0:1:36:854, 1943 
0:1:36:870, 1891 
0:1:36:885, 1841 
0:1:36:901, 1781 
0:1:36:917, 1736 
0:1:36:933, 1684 
0:1:36:949, 1647 
0:1:36:965, 1612 
0:1:36:981, 1582 
0:1:36:996, 1555 
0:1:37:12, 1560 
0:1:37:27, 1681 
0:1:37:42, 1943 
0:1:37:57, 2231 
0:1:37:73, 2443 
0:1:37:89, 2500 
0:1:37:104, 2483 
0:1:37:120, 2425 
0:1:37:135, 2353 
0:1:37:150, 2261 
0:1:37:166, 2182 
0:1:37:181, 2107 
0:1:37:197, 2053 
0:1:37:213, 2000 
0:1:37:229, 1972 
0:1:37:245, 1977 
0:1:37:260, 1997 
0:1:37:275, 2016 
0:1:37:291, 2009 
0:1:37:306, 1990 
0:1:37:322, 1954 
0:1:37:338, 1921 
0:1:37:354, 1888 
0:1:37:370, 1857 
0:1:37:386, 1822 
0:1:37:402, 1779 
0:1:37:417, 1741 
0:1:37:433, 1701 
0:1:37:449, 1656 
0:1:37:465, 1611 
0:1:37:480, 1629 
0:1:37:495, 1753 
0:1:37:510, 2010 
0:1:37:525, 2218 
0:1:37:541, 2385 
0:1:37:557, 2413 
0:1:37:572, 2363 
0:1:37:587, 2294 
0:1:37:602, 2220 
0:1:37:618, 2113 
0:1:37:633, 2036 
0:1:37:649, 1935 
0:1:37:665, 1876 
0:1:37:681, 1846 
0:1:37:696, 1846 
0:1:37:712, 1860 
0:1:37:728, 1867 
0:1:37:743, 1863 
0:1:37:759, 1846 
0:1:37:775, 1824 
0:1:37:790, 1792 
0:1:37:805, 1752 
0:1:37:821, 1710 
0:1:37:837, 1665 
0:1:37:853, 1632 
0:1:37:869, 1601 
0:1:37:885, 1575 
0:1:37:901, 1606 
0:1:37:916, 1753 
0:1:37:931, 1946 
0:1:37:947, 2195 
0:1:37:963, 2323 
0:1:37:978, 2327 
0:1:37:993, 2303 
0:1:38:8, 2262 
0:1:38:23, 2197 
0:1:38:39, 2116 
0:1:38:55, 2059 
0:1:38:71, 1968 
0:1:38:87, 1927 
0:1:38:104, 1891 
0:1:38:119, 1876 
0:1:38:134, 1881 
0:1:38:150, 1889 
0:1:38:166, 1882 
0:1:38:182, 1861 
0:1:38:197, 1843 
0:1:38:213, 1811 
0:1:38:228, 1779 
0:1:38:243, 1730 
0:1:38:259, 1687 
0:1:38:275, 1647 
0:1:38:291, 1611 
0:1:38:306, 1570 
0:1:38:322, 1560 
0:1:38:338, 1638 
0:1:38:354, 1842 
0:1:38:370, 2120 
0:1:38:386, 2269 
0:1:38:402, 2323 
0:1:38:417, 2324 
0:1:38:433, 2286 
0:1:38:449, 2230 
0:1:38:464, 2153 
0:1:38:479, 2070 
0:1:38:494, 1988 
0:1:38:510, 1921 
0:1:38:526, 1875 
0:1:38:542, 1853 
0:1:38:558, 1852 
0:1:38:574, 1861 
0:1:38:590, 1863 
0:1:38:605, 1859 
0:1:38:620, 1846 
0:1:38:635, 1825 
0:1:38:651, 1790 
0:1:38:666, 1748 
0:1:38:681, 1715 
0:1:38:697, 1697 
0:1:38:713, 1666 
0:1:38:728, 1639 
0:1:38:744, 1618 
0:1:38:759, 1590 
0:1:38:774, 1565 
0:1:38:790, 1554 
0:1:38:806, 1577 
0:1:38:822, 1632 
0:1:38:838, 1768 
0:1:38:853, 1902 
0:1:38:870, 2089 
0:1:38:886, 2212 
0:1:38:902, 2346 
0:1:38:918, 2413 
0:1:38:934, 2429 
0:1:38:949, 2419 
0:1:38:965, 2364 
0:1:38:980, 2287 
0:1:38:995, 2228 
0:1:39:11, 2159 
0:1:39:26, 2119 
0:1:39:42, 2068 
0:1:39:57, 2026 
0:1:39:73, 1995 
0:1:39:89, 1984 
0:1:39:104, 1971 
0:1:39:119, 1970 
0:1:39:135, 1977 
0:1:39:151, 1982 
0:1:39:167, 1976 
0:1:39:183, 1955 
0:1:39:198, 1930 
0:1:39:214, 1899 
0:1:39:230, 1870 
0:1:39:246, 1829 
0:1:39:262, 1796 
0:1:39:278, 1752 
0:1:39:294, 1713 
0:1:39:310, 1668 
0:1:39:326, 1632 
0:1:39:341, 1646 
0:1:39:356, 1751 
0:1:39:372, 2039 
0:1:39:388, 2249 
0:1:39:403, 2415 
0:1:39:419, 2472 
0:1:39:435, 2489 
0:1:39:451, 2468 
0:1:39:467, 2408 
0:1:39:484, 2329 
0:1:39:499, 2257 
0:1:39:515, 2180 
0:1:39:531, 2120 
0:1:39:547, 2043 
0:1:39:563, 2000 
0:1:39:579, 1981 
0:1:39:595, 1983 
0:1:39:611, 1995 
0:1:39:627, 2013 
0:1:39:642, 2019 
0:1:39:658, 2017 
0:1:39:674, 1998 
0:1:39:690, 1970 
0:1:39:706, 1935 
0:1:39:722, 1893 
0:1:39:738, 1852 
0:1:39:753, 1822 
0:1:39:769, 1802 
0:1:39:784, 1774 
0:1:39:800, 1745 
0:1:39:816, 1715 
0:1:39:831, 1690 
0:1:39:847, 1660 
0:1:39:863, 1648 
0:1:39:879, 1669 
0:1:39:895, 1729 
0:1:39:910, 1866 
0:1:39:927, 1994 
0:1:39:943, 2038 
0:1:39:960, 2081 
0:1:39:974, 2205 
0:1:39:990, 2339 
0:1:40:7, 2437 
0:1:40:22, 2469 
0:1:40:38, 2463 
0:1:40:55, 2451 
0:1:40:77, 2413 
0:1:40:101, 2364 
0:1:40:118, 2308 
0:1:40:132, 2263 
0:1:40:148, 2214 
0:1:40:164, 2167 
0:1:40:180, 2119 
0:1:40:195, 2058 
0:1:40:212, 2019 
0:1:40:228, 1975 
0:1:40:243, 1949 
0:1:40:260, 1926 
0:1:40:274, 1916 
0:1:40:297, 1912 
0:1:40:320, 1922 
0:1:40:336, 1929 
0:1:40:353, 1930 
0:1:40:367, 1928 
0:1:40:382, 1918 
0:1:40:398, 1906 
0:1:40:413, 1888 
0:1:40:428, 1874 
0:1:40:444, 1854 
0:1:40:459, 1839 
0:1:40:475, 1817 
0:1:40:491, 1788 
0:1:40:506, 1765 
0:1:40:521, 1750 
0:1:40:537, 1721 
0:1:40:553, 1699 
0:1:40:569, 1671 
0:1:40:584, 1650 
0:1:40:599, 1620 
0:1:40:615, 1608 
0:1:40:630, 1630 
0:1:40:646, 1741 
0:1:40:661, 1944 
0:1:40:677, 2171 
0:1:40:693, 2287 
0:1:40:709, 2413 
0:1:40:724, 2474 
0:1:40:740, 2463 
0:1:40:755, 2397 
0:1:40:771, 2351 
0:1:40:787, 2275 
0:1:40:802, 2212 
0:1:40:818, 2161 
0:1:40:834, 2116 
0:1:40:850, 2072 
0:1:40:865, 2048 
0:1:40:880, 2035 
0:1:40:896, 2042 
0:1:40:911, 2050 
0:1:40:927, 2062 
0:1:40:942, 2066 
0:1:40:958, 2061 
0:1:40:974, 2040 
0:1:40:990, 2005 
0:1:41:5, 1970 
0:1:41:21, 1936 
0:1:41:37, 1901 
0:1:41:52, 1857 
0:1:41:68, 1818 
0:1:41:85, 1779 
0:1:41:100, 1757 
0:1:41:116, 1734 
0:1:41:131, 1714 
0:1:41:147, 1696 
0:1:41:162, 1701 
0:1:41:178, 1736 
0:1:41:193, 1843 
0:1:41:209, 2008 
0:1:41:225, 2192 
0:1:41:241, 2356 
0:1:41:256, 2421 
0:1:41:271, 2510 
0:1:41:287, 2557 
0:1:41:303, 2565 
0:1:41:319, 2558 
0:1:41:334, 2544 
0:1:41:350, 2513 
0:1:41:365, 2459 
0:1:41:381, 2428 
0:1:41:396, 2361 
0:1:41:412, 2291 
0:1:41:427, 2204 
0:1:41:443, 2139 
0:1:41:459, 2084 
0:1:41:474, 2031 
0:1:41:489, 2005 
0:1:41:505, 1993 
0:1:41:521, 1992 
0:1:41:536, 2003 
0:1:41:552, 2008 
0:1:41:567, 2015 
0:1:41:582, 2015 
0:1:41:597, 2008 
0:1:41:613, 1993 
0:1:41:629, 1977 
0:1:41:645, 1951 
0:1:41:660, 1912 
0:1:41:676, 1869 
0:1:41:692, 1833 
0:1:41:708, 1802 
0:1:41:724, 1773 
0:1:41:739, 1764 
0:1:41:753, 1726 
0:1:41:769, 1717 
0:1:41:784, 1689 
0:1:41:800, 1652 
0:1:41:816, 1616 
0:1:41:832, 1586 
0:1:41:848, 1595 
0:1:41:864, 1672 
0:1:41:880, 1757 
0:1:41:896, 1904 
0:1:41:912, 2061 
0:1:41:927, 2134 
0:1:41:943, 2274 
0:1:41:958, 2336 
0:1:41:974, 2371 
0:1:41:990, 2361 
0:1:42:5, 2323 
0:1:42:21, 2257 
0:1:42:36, 2213 
0:1:42:52, 2150 
0:1:42:68, 2047 
0:1:42:84, 1976 
0:1:42:99, 1910 
0:1:42:115, 1856 
0:1:42:131, 1821 
0:1:42:147, 1815 
0:1:42:162, 1819 
0:1:42:177, 1827 
0:1:42:193, 1837 
0:1:42:208, 1842 
0:1:42:224, 1842 
0:1:42:240, 1829 
0:1:42:256, 1815 
0:1:42:272, 1800 
0:1:42:288, 1786 
0:1:42:304, 1776 
0:1:42:320, 1761 
0:1:42:336, 1739 
0:1:42:352, 1712 
0:1:42:368, 1681 
0:1:42:384, 1655 
0:1:42:399, 1624 
0:1:42:415, 1610 
0:1:42:430, 1684 
0:1:42:445, 1871 
0:1:42:460, 2126 
0:1:42:475, 2364 
0:1:42:490, 2564 
0:1:42:506, 2615 
0:1:42:521, 2590 
0:1:42:537, 2521 
0:1:42:553, 2422 
0:1:42:568, 2346 
0:1:42:584, 2287 
0:1:42:600, 2213 
0:1:42:616, 2130 
0:1:42:631, 2071 
0:1:42:647, 2039 
0:1:42:663, 2051 
0:1:42:678, 2070 
0:1:42:693, 2087 
0:1:42:708, 2093 
0:1:42:724, 2084 
0:1:42:740, 2054 
0:1:42:756, 2003 
0:1:42:772, 1933 
0:1:42:788, 1856 
0:1:42:803, 1787 
0:1:42:819, 1762 
0:1:42:835, 1714 
0:1:42:851, 1659 
0:1:42:867, 1613 
0:1:42:883, 1614 
0:1:42:899, 1791 
0:1:42:915, 2031 
0:1:42:931, 2365 
0:1:42:947, 2545 
0:1:42:963, 2610 
0:1:42:979, 2579 
0:1:42:994, 2499 
0:1:43:9, 2432 
0:1:43:25, 2345 
0:1:43:41, 2231 
0:1:43:57, 2152 
0:1:43:73, 2050 
0:1:43:88, 2002 
0:1:43:104, 1965 
0:1:43:120, 1965 
0:1:43:136, 1985 
0:1:43:152, 1997 
0:1:43:168, 1985 
0:1:43:184, 1961 
0:1:43:200, 1941 
0:1:43:215, 1928 
0:1:43:231, 1909 
0:1:43:247, 1889 
0:1:43:263, 1864 
0:1:43:279, 1817 
0:1:43:295, 1754 
0:1:43:311, 1729 
0:1:43:326, 1832 
0:1:43:342, 1987 
0:1:43:358, 2223 
0:1:43:374, 2404 
0:1:43:390, 2577 
0:1:43:405, 2689 
0:1:43:421, 2716 
0:1:43:436, 2709 
0:1:43:452, 2643 
0:1:43:468, 2536 
0:1:43:484, 2401 
0:1:43:500, 2257 
0:1:43:516, 2132 
0:1:43:532, 2042 
0:1:43:547, 1998 
0:1:43:563, 1995 
0:1:43:579, 2004 
0:1:43:595, 2011 
0:1:43:611, 2006 
0:1:43:626, 1995 
0:1:43:642, 1976 
0:1:43:657, 1944 
0:1:43:673, 1903 
0:1:43:689, 1846 
0:1:43:704, 1795 
0:1:43:720, 1749 
0:1:43:736, 1698 
0:1:43:752, 1657 
0:1:43:768, 1713 
0:1:43:784, 1883 
0:1:43:799, 2175 
0:1:43:815, 2438 
0:1:43:831, 2576 
0:1:43:846, 2641 
0:1:43:861, 2633 
0:1:43:877, 2572 
0:1:43:893, 2482 
0:1:43:909, 2379 
0:1:43:925, 2273 
0:1:43:941, 2161 
0:1:43:956, 2104 
0:1:43:971, 2079 
0:1:43:987, 2083 
0:1:44:2, 2103 
0:1:44:17, 2121 
0:1:44:32, 2118 
0:1:44:47, 2105 
0:1:44:62, 2078 
0:1:44:77, 2036 
0:1:44:92, 1993 
0:1:44:108, 1946 
0:1:44:124, 1914 
0:1:44:140, 1874 
0:1:44:155, 1849 
0:1:44:170, 1815 
0:1:44:186, 1792 
0:1:44:202, 1834 
0:1:44:217, 1974 
0:1:44:232, 2133 
0:1:44:248, 2218 
0:1:44:263, 2338 
0:1:44:279, 2443 
0:1:44:294, 2549 
0:1:44:310, 2599 
0:1:44:326, 2626 
0:1:44:341, 2621 
0:1:44:356, 2591 
0:1:44:372, 2543 
0:1:44:388, 2483 
0:1:44:403, 2431 
0:1:44:419, 2334 
0:1:44:434, 2276 
0:1:44:450, 2200 
0:1:44:466, 2133 
0:1:44:481, 2093 
0:1:44:497, 2055 
0:1:44:512, 2037 
0:1:44:528, 2032 
0:1:44:544, 2045 
0:1:44:560, 2055 
0:1:44:575, 2075 
0:1:44:590, 2085 
0:1:44:606, 2086 
0:1:44:622, 2071 
0:1:44:637, 2054 
0:1:44:653, 2008 
0:1:44:668, 1959 
0:1:44:684, 1902 
0:1:44:699, 1862 
0:1:44:715, 1813 
0:1:44:731, 1773 
0:1:44:747, 1725 
0:1:44:763, 1673 
0:1:44:778, 1640 
0:1:44:793, 1633 
0:1:44:809, 1731 
0:1:44:825, 1940 
0:1:44:841, 2188 
0:1:44:857, 2401 
0:1:44:872, 2533 
0:1:44:887, 2591 
0:1:44:903, 2605 
0:1:44:918, 2570 
0:1:44:933, 2501 
0:1:44:949, 2416 
0:1:44:965, 2322 
0:1:44:981, 2244 
0:1:44:997, 2146 
0:1:45:12, 2058 
0:1:45:28, 1997 
0:1:45:44, 1975 
0:1:45:59, 1982 
0:1:45:75, 2002 
0:1:45:91, 2019 
0:1:45:107, 2023 
0:1:45:122, 2018 
0:1:45:137, 2003 
0:1:45:153, 1977 
0:1:45:169, 1938 
0:1:45:185, 1911 
0:1:45:201, 1871 
0:1:45:217, 1833 
0:1:45:232, 1796 
0:1:45:248, 1769 
0:1:45:264, 1742 
0:1:45:279, 1710 
0:1:45:294, 1690 
0:1:45:309, 1668 
0:1:45:325, 1652 
0:1:45:341, 1633 
0:1:45:356, 1623 
0:1:45:372, 1633 
0:1:45:387, 1672 
0:1:45:402, 1749 
0:1:45:417, 1902 
0:1:45:433, 2045 
0:1:45:448, 2191 
0:1:45:464, 2326 
0:1:45:480, 2486 
0:1:45:495, 2544 
0:1:45:510, 2607 
0:1:45:527, 2624 
0:1:45:542, 2606 
0:1:45:559, 2546 
0:1:45:574, 2478 
0:1:45:589, 2420 
0:1:45:605, 2298 
0:1:45:620, 2217 
0:1:45:635, 2122 
0:1:45:651, 2054 
0:1:45:666, 2031 
0:1:45:682, 2025 
0:1:45:696, 2045 
0:1:45:711, 2070 
0:1:45:726, 2082 
