Time, Data
0:0:0:0, 1963 
0:0:0:21, 1974 
0:0:0:37, 1968 
0:0:0:53, 1960 
0:0:0:68, 1944 
0:0:0:83, 1900 
0:0:0:99, 1851 
0:0:0:114, 1795 
0:0:0:130, 1744 
0:0:0:145, 1694 
0:0:0:160, 1659 
0:0:0:175, 1625 
0:0:0:190, 1593 
0:0:0:206, 1553 
0:0:0:222, 1503 
0:0:0:237, 1478 
0:0:0:253, 1465 
0:0:0:269, 1424 
0:0:0:285, 1394 
0:0:0:301, 1353 
0:0:0:317, 1355 
0:0:0:333, 1414 
0:0:0:349, 1587 
0:0:0:365, 1891 
0:0:0:381, 2259 
0:0:0:396, 2521 
0:0:0:412, 2809 
0:0:0:427, 3011 
0:0:0:443, 3063 
0:0:0:459, 3037 
0:0:0:475, 2935 
0:0:0:491, 2794 
0:0:0:506, 2620 
0:0:0:522, 2428 
0:0:0:538, 2207 
0:0:0:554, 2080 
0:0:0:569, 1926 
0:0:0:585, 1790 
0:0:0:601, 1739 
0:0:0:616, 1757 
0:0:0:632, 1809 
0:0:0:647, 1866 
0:0:0:662, 1936 
0:0:0:678, 2020 
0:0:0:694, 2069 
0:0:0:710, 2087 
0:0:0:726, 2068 
0:0:0:742, 2053 
0:0:0:758, 2017 
0:0:0:774, 1959 
0:0:0:790, 1898 
0:0:0:806, 1808 
0:0:0:821, 1746 
0:0:0:837, 1694 
0:0:0:853, 1647 
0:0:0:869, 1608 
0:0:0:884, 1590 
0:0:0:899, 1558 
0:0:0:915, 1515 
0:0:0:930, 1479 
0:0:0:946, 1479 
0:0:0:962, 1640 
0:0:0:978, 1914 
0:0:0:994, 2261 
0:0:1:9, 2530 
0:0:1:25, 2841 
0:0:1:41, 2905 
0:0:1:57, 3078 
0:0:1:73, 3156 
0:0:1:89, 3183 
0:0:1:104, 3139 
0:0:1:119, 3091 
0:0:1:135, 2964 
0:0:1:151, 2790 
0:0:1:166, 2651 
0:0:1:181, 2516 
0:0:1:197, 2382 
0:0:1:212, 2206 
0:0:1:228, 2057 
0:0:1:244, 2006 
0:0:1:260, 1941 
0:0:1:276, 1931 
0:0:1:291, 1968 
0:0:1:306, 2038 
0:0:1:322, 2098 
0:0:1:338, 2135 
0:0:1:353, 2166 
0:0:1:368, 2180 
0:0:1:384, 2204 
0:0:1:400, 2212 
0:0:1:416, 2201 
0:0:1:431, 2175 
0:0:1:447, 2126 
0:0:1:462, 2082 
0:0:1:478, 2056 
0:0:1:494, 1986 
0:0:1:510, 1947 
0:0:1:525, 1892 
0:0:1:541, 1836 
0:0:1:556, 1781 
0:0:1:572, 1718 
0:0:1:587, 1663 
0:0:1:602, 1619 
0:0:1:618, 1575 
0:0:1:634, 1550 
0:0:1:650, 1538 
0:0:1:665, 1555 
0:0:1:681, 1636 
0:0:1:697, 1861 
0:0:1:713, 2209 
0:0:1:729, 2515 
0:0:1:745, 2898 
0:0:1:761, 3193 
0:0:1:777, 3411 
0:0:1:793, 3473 
0:0:1:808, 3459 
0:0:1:823, 3409 
0:0:1:838, 3295 
0:0:1:853, 3194 
0:0:1:868, 3041 
0:0:1:884, 2917 
0:0:1:900, 2798 
0:0:1:915, 2649 
0:0:1:931, 2501 
0:0:1:947, 2401 
0:0:1:963, 2349 
0:0:1:978, 2317 
0:0:1:993, 2325 
0:0:2:9, 2354 
0:0:2:25, 2383 
0:0:2:41, 2410 
0:0:2:56, 2415 
0:0:2:71, 2405 
0:0:2:86, 2384 
0:0:2:102, 2333 
0:0:2:117, 2281 
0:0:2:133, 2223 
0:0:2:149, 2158 
0:0:2:165, 2104 
0:0:2:181, 2048 
0:0:2:197, 1980 
0:0:2:213, 1935 
0:0:2:229, 1884 
0:0:2:245, 1830 
0:0:2:261, 1790 
0:0:2:277, 1726 
0:0:2:292, 1693 
0:0:2:307, 1664 
0:0:2:323, 1647 
0:0:2:339, 1678 
0:0:2:355, 1876 
0:0:2:371, 2180 
0:0:2:387, 2574 
0:0:2:403, 2975 
0:0:2:418, 3386 
0:0:2:434, 3622 
0:0:2:450, 3716 
0:0:2:466, 3690 
0:0:2:481, 3595 
0:0:2:496, 3501 
0:0:2:512, 3367 
0:0:2:527, 3216 
0:0:2:542, 3070 
0:0:2:558, 2933 
0:0:2:574, 2802 
0:0:2:590, 2702 
0:0:2:605, 2633 
0:0:2:621, 2583 
0:0:2:637, 2560 
0:0:2:653, 2556 
0:0:2:668, 2551 
0:0:2:684, 2547 
0:0:2:700, 2531 
0:0:2:715, 2510 
0:0:2:731, 2467 
0:0:2:747, 2410 
0:0:2:762, 2361 
0:0:2:777, 2323 
0:0:2:793, 2257 
0:0:2:809, 2180 
0:0:2:824, 2089 
0:0:2:839, 2037 
0:0:2:855, 1967 
0:0:2:871, 1893 
0:0:2:887, 1836 
0:0:2:902, 1791 
0:0:2:918, 1740 
0:0:2:934, 1700 
0:0:2:950, 1641 
0:0:2:966, 1611 
0:0:2:982, 1596 
0:0:2:997, 1658 
0:0:3:13, 1836 
0:0:3:28, 2125 
0:0:3:43, 2495 
0:0:3:59, 2869 
0:0:3:74, 3197 
0:0:3:90, 3490 
0:0:3:105, 3542 
0:0:3:120, 3547 
0:0:3:136, 3542 
0:0:3:152, 3490 
0:0:3:168, 3391 
0:0:3:183, 3365 
0:0:3:199, 3287 
0:0:3:214, 3162 
0:0:3:229, 3064 
0:0:3:244, 2936 
0:0:3:260, 2814 
0:0:3:276, 2693 
0:0:3:292, 2610 
0:0:3:308, 2538 
0:0:3:324, 2501 
0:0:3:339, 2486 
0:0:3:355, 2464 
0:0:3:371, 2450 
0:0:3:387, 2414 
0:0:3:402, 2386 
0:0:3:418, 2360 
0:0:3:434, 2288 
0:0:3:449, 2226 
0:0:3:464, 2177 
0:0:3:479, 2102 
0:0:3:495, 2029 
0:0:3:511, 1980 
0:0:3:527, 1908 
0:0:3:542, 1876 
0:0:3:558, 1838 
0:0:3:574, 1774 
0:0:3:589, 1703 
0:0:3:604, 1633 
0:0:3:619, 1572 
0:0:3:635, 1529 
0:0:3:650, 1500 
0:0:3:665, 1464 
0:0:3:681, 1431 
0:0:3:696, 1396 
0:0:3:711, 1378 
0:0:3:727, 1403 
0:0:3:743, 1531 
0:0:3:758, 1717 
0:0:3:773, 2154 
0:0:3:789, 2538 
0:0:3:805, 2887 
0:0:3:822, 3232 
0:0:3:838, 3331 
0:0:3:853, 3372 
0:0:3:868, 3308 
0:0:3:883, 3203 
0:0:3:899, 3063 
0:0:3:915, 2885 
0:0:3:930, 2779 
0:0:3:945, 2640 
0:0:3:961, 2521 
0:0:3:977, 2415 
0:0:3:993, 2305 
0:0:4:8, 2261 
0:0:4:24, 2246 
0:0:4:40, 2271 
0:0:4:56, 2285 
0:0:4:72, 2279 
0:0:4:88, 2243 
0:0:4:104, 2167 
0:0:4:120, 2105 
0:0:4:136, 2066 
0:0:4:152, 2011 
0:0:4:167, 1971 
0:0:4:182, 1891 
0:0:4:197, 1823 
0:0:4:213, 1763 
0:0:4:229, 1733 
0:0:4:244, 1685 
0:0:4:259, 1626 
0:0:4:275, 1591 
0:0:4:290, 1567 
0:0:4:305, 1508 
0:0:4:321, 1477 
0:0:4:336, 1432 
0:0:4:351, 1401 
0:0:4:367, 1376 
0:0:4:382, 1345 
0:0:4:397, 1319 
0:0:4:413, 1305 
0:0:4:428, 1303 
0:0:4:443, 1370 
0:0:4:458, 1490 
0:0:4:474, 1750 
0:0:4:490, 2100 
0:0:4:506, 2548 
0:0:4:522, 2841 
0:0:4:538, 3070 
0:0:4:554, 3144 
0:0:4:570, 3147 
0:0:4:586, 3094 
0:0:4:602, 2988 
0:0:4:618, 2868 
0:0:4:634, 2715 
0:0:4:649, 2587 
0:0:4:664, 2523 
0:0:4:680, 2356 
0:0:4:696, 2246 
0:0:4:712, 2175 
0:0:4:728, 2139 
0:0:4:744, 2139 
0:0:4:760, 2150 
0:0:4:776, 2173 
0:0:4:792, 2182 
0:0:4:808, 2179 
0:0:4:824, 2158 
0:0:4:840, 2125 
0:0:4:856, 2056 
0:0:4:871, 1998 
0:0:4:886, 1954 
0:0:4:901, 1898 
0:0:4:916, 1809 
0:0:4:932, 1745 
0:0:4:948, 1680 
0:0:4:963, 1641 
0:0:4:979, 1595 
0:0:4:995, 1562 
0:0:5:11, 1532 
0:0:5:26, 1510 
0:0:5:41, 1475 
0:0:5:57, 1446 
0:0:5:73, 1423 
0:0:5:89, 1386 
0:0:5:105, 1371 
0:0:5:120, 1396 
0:0:5:135, 1525 
0:0:5:150, 1765 
0:0:5:166, 1916 
0:0:5:182, 2339 
0:0:5:198, 2638 
0:0:5:213, 2816 
0:0:5:228, 2990 
0:0:5:244, 3019 
0:0:5:260, 2974 
0:0:5:275, 2853 
0:0:5:290, 2748 
0:0:5:306, 2560 
0:0:5:322, 2417 
0:0:5:338, 2233 
0:0:5:353, 2109 
0:0:5:368, 2033 
0:0:5:384, 1967 
0:0:5:400, 1951 
0:0:5:415, 1961 
0:0:5:431, 2018 
0:0:5:447, 2061 
0:0:5:463, 2086 
0:0:5:479, 2096 
0:0:5:495, 2058 
0:0:5:511, 1986 
0:0:5:527, 1914 
0:0:5:542, 1855 
0:0:5:558, 1799 
0:0:5:573, 1752 
0:0:5:588, 1702 
0:0:5:603, 1648 
0:0:5:619, 1582 
0:0:5:635, 1541 
0:0:5:651, 1486 
0:0:5:667, 1457 
0:0:5:683, 1439 
0:0:5:699, 1420 
0:0:5:715, 1409 
0:0:5:731, 1386 
0:0:5:747, 1359 
0:0:5:763, 1378 
0:0:5:779, 1440 
0:0:5:795, 1693 
0:0:5:810, 2004 
0:0:5:825, 2344 
0:0:5:840, 2583 
0:0:5:855, 2844 
0:0:5:871, 3037 
0:0:5:887, 3060 
0:0:5:903, 3011 
0:0:5:919, 2905 
0:0:5:935, 2788 
0:0:5:951, 2597 
0:0:5:967, 2440 
0:0:5:983, 2338 
0:0:5:999, 2216 
0:0:6:14, 2113 
0:0:6:30, 2026 
0:0:6:46, 2002 
0:0:6:61, 2025 
0:0:6:76, 2052 
0:0:6:91, 2077 
0:0:6:107, 2097 
0:0:6:122, 2086 
0:0:6:138, 2050 
0:0:6:154, 1993 
0:0:6:169, 1942 
0:0:6:185, 1897 
0:0:6:201, 1824 
0:0:6:217, 1751 
0:0:6:233, 1703 
0:0:6:248, 1650 
0:0:6:264, 1615 
0:0:6:280, 1581 
0:0:6:295, 1544 
0:0:6:310, 1484 
0:0:6:326, 1439 
0:0:6:342, 1392 
0:0:6:358, 1351 
0:0:6:373, 1338 
0:0:6:389, 1323 
0:0:6:404, 1309 
0:0:6:419, 1336 
0:0:6:435, 1530 
0:0:6:450, 1822 
0:0:6:465, 2191 
0:0:6:480, 2561 
0:0:6:496, 2945 
0:0:6:512, 3177 
0:0:6:527, 3243 
0:0:6:542, 3208 
0:0:6:558, 3113 
0:0:6:573, 3017 
0:0:6:588, 2871 
0:0:6:604, 2727 
0:0:6:619, 2594 
0:0:6:635, 2466 
0:0:6:650, 2336 
0:0:6:665, 2219 
0:0:6:681, 2152 
0:0:6:697, 2089 
0:0:6:713, 2075 
0:0:6:729, 2088 
0:0:6:745, 2101 
0:0:6:760, 2121 
0:0:6:775, 2130 
0:0:6:791, 2088 
0:0:6:807, 2022 
0:0:6:823, 1949 
0:0:6:838, 1887 
0:0:6:853, 1825 
0:0:6:869, 1757 
0:0:6:885, 1674 
0:0:6:901, 1601 
0:0:6:916, 1531 
0:0:6:932, 1484 
0:0:6:947, 1432 
0:0:6:963, 1377 
0:0:6:979, 1341 
0:0:6:994, 1317 
0:0:7:9, 1299 
0:0:7:24, 1279 
0:0:7:39, 1253 
0:0:7:55, 1222 
0:0:7:71, 1201 
0:0:7:87, 1168 
0:0:7:103, 1158 
0:0:7:119, 1196 
0:0:7:135, 1403 
0:0:7:151, 1733 
0:0:7:167, 2147 
0:0:7:182, 2595 
0:0:7:198, 3065 
0:0:7:214, 3310 
0:0:7:229, 3443 
0:0:7:244, 3496 
0:0:7:260, 3465 
0:0:7:276, 3352 
0:0:7:292, 3226 
0:0:7:308, 3097 
0:0:7:323, 2959 
0:0:7:338, 2830 
0:0:7:354, 2681 
0:0:7:370, 2556 
0:0:7:385, 2450 
0:0:7:401, 2370 
0:0:7:416, 2324 
0:0:7:431, 2291 
0:0:7:446, 2271 
0:0:7:461, 2270 
0:0:7:476, 2272 
0:0:7:492, 2248 
0:0:7:507, 2218 
0:0:7:523, 2148 
0:0:7:539, 2078 
0:0:7:554, 1974 
0:0:7:570, 1881 
0:0:7:586, 1785 
0:0:7:602, 1712 
0:0:7:617, 1637 
0:0:7:633, 1582 
0:0:7:649, 1495 
0:0:7:664, 1445 
0:0:7:679, 1391 
0:0:7:694, 1338 
0:0:7:709, 1293 
0:0:7:725, 1250 
0:0:7:740, 1227 
0:0:7:756, 1218 
0:0:7:772, 1206 
0:0:7:788, 1185 
0:0:7:804, 1156 
0:0:7:819, 1172 
0:0:7:835, 1277 
0:0:7:851, 1523 
0:0:7:867, 2016 
0:0:7:882, 2443 
0:0:7:898, 2836 
0:0:7:914, 3193 
0:0:7:929, 3378 
0:0:7:944, 3420 
0:0:7:960, 3386 
0:0:7:976, 3255 
0:0:7:992, 3132 
0:0:8:8, 2959 
0:0:8:23, 2841 
0:0:8:39, 2756 
0:0:8:54, 2592 
0:0:8:69, 2498 
0:0:8:85, 2368 
0:0:8:101, 2256 
0:0:8:116, 2197 
0:0:8:132, 2172 
0:0:8:147, 2164 
0:0:8:162, 2155 
0:0:8:177, 2136 
0:0:8:192, 2120 
0:0:8:208, 2095 
0:0:8:225, 2051 
0:0:8:240, 1992 
0:0:8:255, 1932 
0:0:8:271, 1830 
0:0:8:287, 1741 
0:0:8:303, 1621 
0:0:8:318, 1533 
0:0:8:334, 1450 
0:0:8:350, 1398 
0:0:8:366, 1344 
0:0:8:382, 1294 
0:0:8:397, 1242 
0:0:8:412, 1204 
0:0:8:427, 1171 
0:0:8:442, 1161 
0:0:8:458, 1151 
0:0:8:474, 1136 
0:0:8:490, 1109 
0:0:8:506, 1061 
0:0:8:522, 1033 
0:0:8:537, 1096 
0:0:8:552, 1369 
0:0:8:568, 1739 
0:0:8:584, 2299 
0:0:8:599, 2703 
0:0:8:615, 3041 
0:0:8:630, 3228 
0:0:8:645, 3296 
0:0:8:661, 3303 
0:0:8:677, 3233 
0:0:8:693, 3142 
0:0:8:709, 3011 
0:0:8:724, 2865 
0:0:8:739, 2710 
0:0:8:754, 2561 
0:0:8:770, 2414 
0:0:8:786, 2281 
0:0:8:802, 2169 
0:0:8:818, 2104 
0:0:8:833, 2079 
0:0:8:849, 2087 
0:0:8:864, 2095 
0:0:8:879, 2099 
0:0:8:895, 2086 
0:0:8:911, 2056 
0:0:8:927, 2010 
0:0:8:942, 1927 
0:0:8:958, 1846 
0:0:8:974, 1767 
0:0:8:990, 1666 
0:0:9:6, 1591 
0:0:9:21, 1503 
0:0:9:37, 1433 
0:0:9:53, 1365 
0:0:9:69, 1322 
0:0:9:85, 1270 
0:0:9:100, 1236 
0:0:9:116, 1203 
0:0:9:132, 1162 
0:0:9:148, 1142 
0:0:9:164, 1111 
0:0:9:180, 1080 
0:0:9:196, 1062 
0:0:9:212, 1038 
0:0:9:228, 1023 
0:0:9:244, 1067 
0:0:9:260, 1282 
0:0:9:276, 1626 
0:0:9:292, 2057 
0:0:9:308, 2492 
0:0:9:323, 2919 
0:0:9:338, 3120 
0:0:9:353, 3233 
0:0:9:369, 3220 
0:0:9:385, 3114 
0:0:9:401, 3001 
0:0:9:417, 2854 
0:0:9:433, 2639 
0:0:9:449, 2477 
0:0:9:465, 2265 
0:0:9:481, 2115 
0:0:9:497, 1999 
0:0:9:513, 1940 
0:0:9:529, 1939 
0:0:9:545, 1967 
0:0:9:560, 2023 
0:0:9:575, 2044 
0:0:9:590, 2062 
0:0:9:606, 2066 
0:0:9:622, 2031 
0:0:9:638, 1976 
0:0:9:654, 1915 
0:0:9:670, 1831 
0:0:9:686, 1741 
0:0:9:702, 1652 
0:0:9:717, 1565 
0:0:9:733, 1507 
0:0:9:749, 1436 
0:0:9:765, 1397 
0:0:9:781, 1365 
0:0:9:797, 1310 
0:0:9:813, 1272 
0:0:9:828, 1249 
0:0:9:844, 1214 
0:0:9:860, 1165 
0:0:9:876, 1141 
0:0:9:891, 1108 
0:0:9:907, 1065 
0:0:9:922, 1048 
0:0:9:938, 1114 
0:0:9:954, 1335 
0:0:9:969, 1684 
0:0:9:985, 1684 
0:0:10:1, 1885 
0:0:10:17, 2401 
0:0:10:32, 2740 
0:0:10:47, 2993 
0:0:10:62, 3103 
0:0:10:77, 3075 
0:0:10:93, 2991 
0:0:10:109, 2816 
0:0:10:124, 2687 
0:0:10:140, 2517 
0:0:10:156, 2318 
0:0:10:172, 2087 
0:0:10:188, 1933 
0:0:10:204, 1819 
0:0:10:220, 1770 
0:0:10:236, 1774 
0:0:10:252, 1825 
0:0:10:268, 1887 
0:0:10:283, 1942 
0:0:10:298, 2000 
0:0:10:313, 2009 
0:0:10:329, 1979 
0:0:10:344, 1926 
0:0:10:359, 1856 
0:0:10:375, 1759 
0:0:10:391, 1699 
0:0:10:407, 1620 
0:0:10:423, 1545 
0:0:10:439, 1481 
0:0:10:455, 1423 
0:0:10:470, 1360 
0:0:10:486, 1313 
0:0:10:502, 1250 
0:0:10:516, 1198 
0:0:10:532, 1160 
0:0:10:547, 1124 
0:0:10:563, 1093 
0:0:10:579, 1107 
0:0:10:595, 1218 
0:0:10:611, 1495 
0:0:10:627, 1881 
0:0:10:642, 2289 
0:0:10:658, 2729 
0:0:10:674, 3002 
0:0:10:690, 3133 
0:0:10:706, 3133 
0:0:10:721, 3064 
0:0:10:737, 3012 
0:0:10:752, 2873 
0:0:10:767, 2749 
0:0:10:782, 2581 
0:0:10:797, 2392 
0:0:10:812, 2147 
0:0:10:827, 1982 
0:0:10:843, 1852 
0:0:10:858, 1793 
0:0:10:874, 1795 
0:0:10:890, 1838 
0:0:10:906, 1891 
0:0:10:922, 1938 
0:0:10:938, 1959 
0:0:10:954, 1959 
0:0:10:970, 1936 
0:0:10:985, 1910 
0:0:11:0, 1862 
0:0:11:15, 1798 
0:0:11:31, 1701 
0:0:11:47, 1593 
0:0:11:62, 1523 
0:0:11:77, 1453 
0:0:11:93, 1383 
0:0:11:108, 1329 
0:0:11:124, 1270 
0:0:11:140, 1228 
0:0:11:156, 1180 
0:0:11:171, 1158 
0:0:11:187, 1131 
0:0:11:203, 1167 
0:0:11:218, 1340 
0:0:11:233, 1665 
0:0:11:249, 2101 
0:0:11:265, 2558 
0:0:11:281, 3019 
0:0:11:297, 3333 
0:0:11:313, 3401 
0:0:11:328, 3382 
0:0:11:344, 3282 
0:0:11:359, 3174 
0:0:11:375, 2969 
0:0:11:391, 2808 
0:0:11:407, 2630 
0:0:11:423, 2443 
0:0:11:439, 2239 
0:0:11:454, 2134 
0:0:11:469, 2016 
0:0:11:484, 1987 
0:0:11:500, 2005 
0:0:11:515, 2062 
0:0:11:531, 2130 
0:0:11:547, 2166 
0:0:11:563, 2182 
0:0:11:579, 2156 
0:0:11:594, 2086 
0:0:11:610, 2013 
0:0:11:626, 1911 
0:0:11:642, 1855 
0:0:11:658, 1786 
0:0:11:674, 1679 
0:0:11:689, 1599 
0:0:11:704, 1524 
0:0:11:719, 1443 
0:0:11:735, 1371 
0:0:11:750, 1305 
0:0:11:765, 1257 
0:0:11:781, 1206 
0:0:11:796, 1165 
0:0:11:811, 1115 
0:0:11:827, 1125 
0:0:11:842, 1238 
0:0:11:857, 1518 
0:0:11:872, 1945 
0:0:11:887, 2422 
0:0:11:903, 2964 
0:0:11:918, 3339 
0:0:11:933, 3541 
0:0:11:948, 3618 
0:0:11:963, 3592 
0:0:11:979, 3531 
0:0:11:995, 3351 
0:0:12:11, 3189 
0:0:12:27, 3038 
0:0:12:43, 2868 
0:0:12:59, 2653 
0:0:12:75, 2495 
0:0:12:91, 2342 
0:0:12:107, 2262 
0:0:12:122, 2207 
0:0:12:138, 2193 
0:0:12:154, 2210 
0:0:12:169, 2236 
0:0:12:184, 2238 
0:0:12:200, 2220 
0:0:12:216, 2184 
0:0:12:232, 2120 
0:0:12:248, 2051 
0:0:12:263, 1999 
0:0:12:279, 1914 
0:0:12:295, 1826 
0:0:12:310, 1720 
0:0:12:325, 1628 
0:0:12:341, 1523 
0:0:12:357, 1443 
0:0:12:373, 1367 
0:0:12:389, 1340 
0:0:12:404, 1295 
0:0:12:420, 1234 
0:0:12:436, 1154 
0:0:12:452, 1113 
0:0:12:468, 1126 
0:0:12:484, 1290 
0:0:12:500, 1691 
0:0:12:515, 2138 
0:0:12:531, 2710 
0:0:12:547, 3103 
0:0:12:563, 3488 
0:0:12:579, 3600 
0:0:12:595, 3622 
0:0:12:611, 3551 
0:0:12:627, 3433 
0:0:12:642, 3289 
0:0:12:657, 3121 
0:0:12:673, 2963 
0:0:12:689, 2796 
0:0:12:704, 2622 
0:0:12:719, 2432 
0:0:12:735, 2319 
0:0:12:751, 2252 
0:0:12:767, 2242 
0:0:12:783, 2246 
0:0:12:799, 2257 
0:0:12:815, 2256 
0:0:12:830, 2238 
0:0:12:845, 2218 
0:0:12:861, 2169 
0:0:12:876, 2061 
0:0:12:891, 1970 
0:0:12:906, 1881 
0:0:12:921, 1784 
0:0:12:937, 1718 
0:0:12:953, 1646 
0:0:12:969, 1578 
0:0:12:984, 1499 
0:0:12:999, 1431 
0:0:13:15, 1372 
0:0:13:30, 1273 
0:0:13:45, 1210 
0:0:13:61, 1165 
0:0:13:77, 1144 
0:0:13:92, 1135 
0:0:13:107, 1134 
0:0:13:123, 1213 
0:0:13:139, 1421 
0:0:13:155, 1773 
0:0:13:171, 2335 
0:0:13:187, 2753 
0:0:13:203, 3099 
0:0:13:219, 3330 
0:0:13:235, 3427 
0:0:13:251, 3461 
0:0:13:267, 3395 
0:0:13:283, 3231 
0:0:13:299, 3067 
0:0:13:314, 2866 
0:0:13:330, 2703 
0:0:13:345, 2525 
0:0:13:360, 2325 
0:0:13:375, 2196 
0:0:13:391, 2111 
0:0:13:407, 2079 
0:0:13:424, 2088 
0:0:13:440, 2126 
0:0:13:455, 2160 
0:0:13:471, 2168 
0:0:13:487, 2152 
0:0:13:503, 2117 
0:0:13:518, 2058 
0:0:13:534, 1971 
0:0:13:550, 1855 
0:0:13:566, 1771 
0:0:13:581, 1696 
0:0:13:596, 1620 
0:0:13:611, 1546 
0:0:13:627, 1498 
0:0:13:642, 1427 
0:0:13:657, 1390 
0:0:13:672, 1359 
0:0:13:688, 1300 
0:0:13:704, 1243 
0:0:13:720, 1191 
0:0:13:736, 1168 
0:0:13:751, 1155 
0:0:13:767, 1139 
0:0:13:783, 1130 
0:0:13:799, 1133 
0:0:13:814, 1247 
0:0:13:829, 1359 
0:0:13:845, 1685 
0:0:13:861, 2095 
0:0:13:877, 2631 
0:0:13:892, 2971 
0:0:13:908, 3195 
0:0:13:923, 3342 
0:0:13:939, 3331 
0:0:13:955, 3233 
0:0:13:971, 3057 
0:0:13:986, 2885 
0:0:14:1, 2706 
0:0:14:16, 2488 
0:0:14:32, 2367 
0:0:14:47, 2228 
0:0:14:62, 2140 
0:0:14:78, 2073 
0:0:14:93, 2043 
0:0:14:109, 2043 
0:0:14:125, 2088 
0:0:14:140, 2125 
0:0:14:156, 2141 
0:0:14:172, 2155 
0:0:14:188, 2122 
0:0:14:203, 2071 
0:0:14:219, 2004 
0:0:14:235, 1925 
0:0:14:251, 1873 
0:0:14:266, 1809 
0:0:14:281, 1728 
0:0:14:296, 1606 
0:0:14:311, 1510 
0:0:14:326, 1436 
0:0:14:342, 1379 
0:0:14:358, 1333 
0:0:14:374, 1292 
0:0:14:390, 1258 
0:0:14:405, 1224 
0:0:14:421, 1202 
0:0:14:437, 1175 
0:0:14:453, 1160 
0:0:14:469, 1238 
0:0:14:485, 1437 
0:0:14:501, 1851 
0:0:14:516, 2249 
0:0:14:531, 2613 
0:0:14:546, 2911 
0:0:14:561, 3080 
0:0:14:577, 3132 
0:0:14:593, 3098 
0:0:14:609, 2962 
0:0:14:624, 2800 
0:0:14:640, 2567 
0:0:14:656, 2427 
0:0:14:672, 2282 
0:0:14:687, 2101 
0:0:14:703, 1958 
0:0:14:719, 1891 
0:0:14:735, 1868 
0:0:14:750, 1905 
0:0:14:765, 1956 
0:0:14:780, 2029 
0:0:14:795, 2078 
0:0:14:810, 2096 
0:0:14:825, 2069 
0:0:14:841, 2018 
0:0:14:857, 1949 
0:0:14:873, 1880 
0:0:14:889, 1825 
0:0:14:905, 1766 
0:0:14:921, 1705 
0:0:14:937, 1626 
0:0:14:953, 1549 
0:0:14:969, 1466 
0:0:14:984, 1407 
0:0:14:999, 1379 
0:0:15:15, 1339 
0:0:15:31, 1305 
0:0:15:47, 1276 
0:0:15:63, 1241 
0:0:15:79, 1236 
0:0:15:94, 1321 
0:0:15:109, 1535 
0:0:15:124, 1861 
0:0:15:140, 2354 
0:0:15:156, 2702 
0:0:15:172, 3012 
0:0:15:188, 3179 
0:0:15:204, 3214 
0:0:15:220, 3133 
0:0:15:235, 3034 
0:0:15:250, 2885 
0:0:15:266, 2687 
0:0:15:282, 2499 
0:0:15:298, 2310 
0:0:15:314, 2093 
0:0:15:329, 1977 
0:0:15:345, 1917 
0:0:15:361, 1900 
0:0:15:377, 1926 
0:0:15:393, 2005 
0:0:15:409, 2074 
0:0:15:425, 2105 
0:0:15:441, 2110 
0:0:15:456, 2096 
0:0:15:471, 2049 
0:0:15:487, 1988 
0:0:15:502, 1917 
0:0:15:518, 1826 
0:0:15:534, 1729 
0:0:15:550, 1644 
0:0:15:566, 1536 
0:0:15:581, 1488 
0:0:15:597, 1414 
0:0:15:613, 1362 
0:0:15:628, 1343 
0:0:15:644, 1308 
0:0:15:660, 1266 
0:0:15:676, 1232 
0:0:15:691, 1202 
0:0:15:706, 1222 
0:0:15:721, 1336 
0:0:15:737, 1672 
0:0:15:753, 2080 
0:0:15:769, 2501 
0:0:15:785, 2862 
0:0:15:801, 3166 
0:0:15:817, 3306 
0:0:15:833, 3325 
0:0:15:848, 3273 
0:0:15:863, 3153 
0:0:15:879, 2995 
0:0:15:895, 2825 
0:0:15:911, 2683 
0:0:15:926, 2500 
0:0:15:941, 2330 
0:0:15:956, 2185 
0:0:15:972, 2086 
0:0:15:988, 2032 
0:0:16:4, 2036 
0:0:16:19, 2070 
0:0:16:35, 2113 
0:0:16:51, 2142 
0:0:16:67, 2138 
0:0:16:82, 2122 
0:0:16:97, 2085 
0:0:16:112, 2025 
0:0:16:128, 1965 
0:0:16:144, 1855 
0:0:16:159, 1763 
0:0:16:174, 1686 
0:0:16:190, 1607 
0:0:16:206, 1542 
0:0:16:222, 1492 
0:0:16:237, 1448 
0:0:16:253, 1382 
0:0:16:269, 1329 
0:0:16:284, 1275 
0:0:16:299, 1240 
0:0:16:315, 1202 
0:0:16:331, 1205 
0:0:16:347, 1310 
0:0:16:363, 1529 
0:0:16:379, 1981 
0:0:16:394, 2399 
0:0:16:409, 2780 
0:0:16:425, 3121 
0:0:16:440, 3327 
0:0:16:455, 3360 
0:0:16:471, 3346 
0:0:16:487, 3218 
0:0:16:503, 3073 
0:0:16:518, 2873 
0:0:16:534, 2757 
0:0:16:550, 2624 
0:0:16:566, 2494 
0:0:16:582, 2365 
0:0:16:598, 2221 
0:0:16:614, 2151 
0:0:16:629, 2130 
0:0:16:644, 2122 
0:0:16:660, 2150 
0:0:16:675, 2161 
0:0:16:690, 2159 
0:0:16:705, 2154 
0:0:16:721, 2109 
0:0:16:737, 2053 
0:0:16:753, 1974 
0:0:16:769, 1847 
0:0:16:785, 1764 
0:0:16:800, 1688 
0:0:16:817, 1614 
0:0:16:833, 1529 
0:0:16:849, 1463 
0:0:16:864, 1409 
0:0:16:879, 1352 
0:0:16:893, 1303 
0:0:16:909, 1282 
0:0:16:925, 1253 
0:0:16:941, 1233 
0:0:16:957, 1201 
0:0:16:973, 1162 
0:0:16:989, 1194 
0:0:17:5, 1340 
0:0:17:20, 1721 
0:0:17:36, 2129 
0:0:17:52, 2601 
0:0:17:68, 2994 
0:0:17:84, 3153 
0:0:17:99, 3213 
0:0:17:114, 3164 
0:0:17:129, 3072 
0:0:17:145, 2952 
0:0:17:161, 2809 
0:0:17:176, 2706 
0:0:17:192, 2541 
0:0:17:208, 2407 
0:0:17:224, 2294 
0:0:17:240, 2197 
0:0:17:256, 2134 
0:0:17:272, 2098 
0:0:17:287, 2093 
0:0:17:303, 2105 
0:0:17:319, 2110 
0:0:17:334, 2088 
0:0:17:349, 2040 
0:0:17:364, 1993 
0:0:17:379, 1946 
0:0:17:395, 1879 
0:0:17:411, 1794 
0:0:17:426, 1725 
0:0:17:441, 1642 
0:0:17:456, 1561 
0:0:17:472, 1500 
0:0:17:487, 1440 
0:0:17:503, 1390 
0:0:17:518, 1358 
0:0:17:534, 1307 
0:0:17:550, 1267 
0:0:17:565, 1242 
0:0:17:580, 1223 
0:0:17:596, 1213 
0:0:17:612, 1188 
0:0:17:628, 1165 
0:0:17:643, 1185 
0:0:17:659, 1297 
0:0:17:675, 1549 
0:0:17:691, 1898 
0:0:17:707, 2299 
0:0:17:722, 2678 
0:0:17:738, 2978 
0:0:17:754, 3171 
0:0:17:770, 3207 
0:0:17:786, 3173 
0:0:17:801, 3087 
0:0:17:816, 2974 
0:0:17:832, 2839 
0:0:17:848, 2678 
0:0:17:863, 2566 
0:0:17:879, 2445 
0:0:17:894, 2306 
0:0:17:909, 2208 
0:0:17:925, 2131 
0:0:17:940, 2086 
0:0:17:956, 2101 
0:0:17:972, 2126 
0:0:17:988, 2130 
0:0:18:3, 2130 
0:0:18:19, 2107 
0:0:18:34, 2045 
0:0:18:49, 1989 
0:0:18:65, 1931 
0:0:18:81, 1853 
0:0:18:97, 1787 
0:0:18:113, 1689 
0:0:18:129, 1628 
0:0:18:145, 1540 
0:0:18:161, 1467 
0:0:18:177, 1414 
0:0:18:193, 1382 
0:0:18:208, 1337 
0:0:18:224, 1306 
0:0:18:239, 1285 
0:0:18:254, 1258 
0:0:18:269, 1243 
0:0:18:284, 1233 
0:0:18:299, 1210 
0:0:18:315, 1181 
0:0:18:331, 1232 
0:0:18:347, 1442 
0:0:18:363, 1757 
0:0:18:379, 2218 
0:0:18:395, 2658 
0:0:18:411, 2897 
0:0:18:426, 3068 
0:0:18:442, 3138 
0:0:18:458, 3117 
0:0:18:473, 3022 
0:0:18:489, 2859 
0:0:18:504, 2711 
0:0:18:519, 2571 
0:0:18:535, 2384 
0:0:18:551, 2231 
0:0:18:567, 2103 
0:0:18:583, 2041 
0:0:18:599, 2027 
0:0:18:615, 2058 
0:0:18:631, 2086 
0:0:18:647, 2117 
0:0:18:663, 2134 
0:0:18:679, 2107 
0:0:18:695, 2077 
0:0:18:710, 2028 
0:0:18:725, 1960 
0:0:18:740, 1873 
0:0:18:755, 1797 
0:0:18:770, 1726 
0:0:18:786, 1652 
0:0:18:802, 1588 
0:0:18:818, 1539 
0:0:18:834, 1471 
0:0:18:850, 1436 
0:0:18:866, 1393 
0:0:18:882, 1354 
0:0:18:898, 1331 
0:0:18:913, 1317 
0:0:18:928, 1299 
0:0:18:944, 1267 
0:0:18:960, 1247 
0:0:18:975, 1225 
0:0:18:990, 1231 
0:0:19:5, 1407 
0:0:19:20, 1608 
0:0:19:35, 1953 
0:0:19:50, 2331 
0:0:19:65, 2729 
0:0:19:80, 2950 
0:0:19:96, 3044 
0:0:19:112, 3018 
0:0:19:128, 2925 
0:0:19:144, 2747 
0:0:19:160, 2567 
0:0:19:176, 2403 
0:0:19:192, 2241 
0:0:19:207, 2101 
0:0:19:222, 2011 
0:0:19:238, 1960 
0:0:19:254, 1927 
0:0:19:269, 1947 
0:0:19:285, 1991 
0:0:19:301, 2039 
0:0:19:317, 2070 
0:0:19:333, 2074 
0:0:19:349, 2055 
0:0:19:365, 2016 
0:0:19:381, 1969 
0:0:19:397, 1906 
0:0:19:412, 1846 
0:0:19:427, 1773 
0:0:19:442, 1726 
0:0:19:457, 1670 
0:0:19:472, 1602 
0:0:19:488, 1527 
0:0:19:504, 1494 
0:0:19:520, 1474 
0:0:19:536, 1422 
0:0:19:552, 1367 
0:0:19:568, 1316 
0:0:19:584, 1275 
0:0:19:600, 1263 
0:0:19:616, 1306 
0:0:19:632, 1544 
0:0:19:648, 1767 
0:0:19:664, 2111 
0:0:19:679, 2440 
0:0:19:694, 2711 
0:0:19:709, 2924 
0:0:19:725, 3004 
0:0:19:740, 2994 
0:0:19:755, 2901 
0:0:19:771, 2715 
0:0:19:787, 2552 
0:0:19:803, 2312 
0:0:19:818, 2129 
0:0:19:834, 1937 
0:0:19:849, 1863 
0:0:19:864, 1827 
0:0:19:880, 1839 
0:0:19:896, 1890 
0:0:19:911, 1940 
0:0:19:926, 1970 
0:0:19:942, 2018 
0:0:19:958, 2029 
0:0:19:974, 2023 
0:0:19:990, 1998 
0:0:20:6, 1939 
0:0:20:22, 1854 
0:0:20:38, 1777 
0:0:20:53, 1726 
0:0:20:69, 1675 
0:0:20:85, 1611 
0:0:20:100, 1546 
0:0:20:116, 1493 
0:0:20:132, 1444 
0:0:20:147, 1416 
0:0:20:162, 1384 
0:0:20:177, 1365 
0:0:20:193, 1349 
0:0:20:209, 1338 
0:0:20:224, 1384 
0:0:20:239, 1537 
0:0:20:254, 1735 
0:0:20:269, 2097 
0:0:20:285, 2563 
0:0:20:300, 2866 
0:0:20:315, 3110 
0:0:20:331, 3181 
0:0:20:347, 3158 
0:0:20:363, 3059 
0:0:20:378, 2913 
0:0:20:393, 2743 
0:0:20:408, 2542 
0:0:20:424, 2315 
0:0:20:440, 2106 
0:0:20:455, 2001 
0:0:20:470, 1927 
0:0:20:486, 1908 
0:0:20:502, 1951 
0:0:20:517, 2012 
0:0:20:533, 2063 
0:0:20:549, 2124 
0:0:20:564, 2146 
0:0:20:579, 2113 
0:0:20:595, 2052 
0:0:20:610, 1996 
0:0:20:626, 1883 
0:0:20:642, 1805 
0:0:20:658, 1733 
0:0:20:673, 1655 
0:0:20:689, 1585 
0:0:20:705, 1537 
0:0:20:720, 1473 
0:0:20:736, 1416 
0:0:20:752, 1380 
0:0:20:768, 1325 
0:0:20:784, 1282 
0:0:20:800, 1252 
0:0:20:815, 1293 
0:0:20:831, 1475 
0:0:20:846, 1802 
0:0:20:861, 2226 
0:0:20:877, 2670 
0:0:20:893, 3027 
0:0:20:909, 3306 
0:0:20:924, 3409 
0:0:20:940, 3392 
0:0:20:956, 3294 
0:0:20:972, 3113 
0:0:20:988, 2971 
0:0:21:3, 2799 
0:0:21:18, 2573 
0:0:21:33, 2407 
0:0:21:49, 2228 
0:0:21:65, 2154 
0:0:21:80, 2131 
0:0:21:95, 2128 
0:0:21:111, 2156 
0:0:21:127, 2191 
0:0:21:143, 2199 
0:0:21:159, 2192 
0:0:21:175, 2147 
0:0:21:191, 2093 
0:0:21:207, 2029 
0:0:21:223, 1925 
0:0:21:238, 1863 
0:0:21:253, 1778 
0:0:21:269, 1671 
0:0:21:285, 1623 
0:0:21:301, 1552 
0:0:21:316, 1475 
0:0:21:331, 1419 
0:0:21:347, 1373 
0:0:21:363, 1302 
0:0:21:378, 1256 
0:0:21:393, 1209 
0:0:21:408, 1184 
0:0:21:423, 1173 
0:0:21:439, 1196 
0:0:21:455, 1354 
0:0:21:471, 1625 
0:0:21:487, 2010 
0:0:21:502, 2460 
0:0:21:517, 2861 
0:0:21:534, 3181 
0:0:21:549, 3396 
0:0:21:564, 3434 
0:0:21:580, 3363 
0:0:21:596, 3192 
0:0:21:612, 3013 
0:0:21:627, 2851 
0:0:21:643, 2664 
0:0:21:659, 2519 
0:0:21:675, 2332 
0:0:21:691, 2245 
0:0:21:707, 2173 
0:0:21:723, 2101 
0:0:21:739, 2095 
0:0:21:755, 2120 
0:0:21:771, 2141 
0:0:21:786, 2158 
0:0:21:801, 2144 
0:0:21:817, 2068 
0:0:21:832, 1991 
0:0:21:847, 1896 
0:0:21:863, 1818 
0:0:21:879, 1741 
0:0:21:895, 1680 
0:0:21:911, 1603 
0:0:21:926, 1522 
0:0:21:942, 1425 
0:0:21:958, 1360 
0:0:21:974, 1325 
0:0:21:990, 1309 
0:0:22:6, 1256 
0:0:22:22, 1209 
0:0:22:37, 1177 
0:0:22:52, 1132 
0:0:22:68, 1119 
0:0:22:84, 1110 
0:0:22:99, 1110 
0:0:22:115, 1176 
0:0:22:130, 1352 
0:0:22:146, 1765 
0:0:22:161, 2172 
0:0:22:176, 2579 
0:0:22:192, 2915 
0:0:22:208, 3070 
0:0:22:224, 3201 
0:0:22:240, 3201 
0:0:22:255, 3151 
0:0:22:270, 3052 
0:0:22:286, 2894 
0:0:22:301, 2760 
0:0:22:316, 2637 
0:0:22:332, 2519 
0:0:22:348, 2431 
0:0:22:363, 2296 
0:0:22:379, 2194 
0:0:22:395, 2097 
0:0:22:411, 2046 
0:0:22:426, 2042 
0:0:22:442, 2049 
0:0:22:458, 2041 
0:0:22:473, 2045 
0:0:22:488, 2017 
0:0:22:503, 1970 
0:0:22:519, 1902 
0:0:22:534, 1842 
0:0:22:550, 1750 
0:0:22:566, 1679 
0:0:22:581, 1595 
0:0:22:597, 1499 
0:0:22:613, 1424 
0:0:22:628, 1352 
0:0:22:645, 1309 
0:0:22:660, 1271 
0:0:22:676, 1235 
0:0:22:692, 1210 
0:0:22:708, 1190 
0:0:22:724, 1166 
0:0:22:739, 1154 
0:0:22:755, 1130 
0:0:22:771, 1114 
0:0:22:787, 1107 
0:0:22:803, 1109 
0:0:22:819, 1179 
0:0:22:835, 1371 
0:0:22:851, 1805 
0:0:22:867, 2220 
0:0:22:883, 2713 
0:0:22:899, 3010 
0:0:22:915, 3177 
0:0:22:931, 3224 
0:0:22:946, 3180 
0:0:22:961, 3108 
0:0:22:976, 2975 
0:0:22:991, 2830 
0:0:23:7, 2672 
0:0:23:23, 2529 
0:0:23:39, 2392 
0:0:23:55, 2279 
0:0:23:71, 2176 
0:0:23:87, 2123 
0:0:23:103, 2084 
0:0:23:119, 2070 
0:0:23:135, 2089 
0:0:23:151, 2095 
0:0:23:166, 2085 
0:0:23:182, 2050 
0:0:23:197, 2006 
0:0:23:212, 1964 
0:0:23:229, 1897 
0:0:23:245, 1839 
0:0:23:261, 1785 
0:0:23:277, 1694 
0:0:23:293, 1622 
0:0:23:308, 1526 
0:0:23:323, 1457 
0:0:23:339, 1404 
0:0:23:355, 1376 
0:0:23:371, 1320 
0:0:23:387, 1292 
0:0:23:402, 1256 
0:0:23:417, 1230 
0:0:23:432, 1200 
0:0:23:447, 1182 
0:0:23:462, 1191 
0:0:23:478, 1185 
0:0:23:494, 1149 
0:0:23:510, 1200 
0:0:23:526, 1360 
0:0:23:542, 1642 
0:0:23:557, 2013 
0:0:23:572, 2298 
0:0:23:588, 2697 
0:0:23:604, 2953 
0:0:23:620, 3020 
0:0:23:635, 3021 
0:0:23:651, 2906 
0:0:23:666, 2764 
0:0:23:681, 2622 
0:0:23:696, 2470 
0:0:23:712, 2318 
0:0:23:727, 2181 
0:0:23:743, 2091 
0:0:23:758, 2024 
0:0:23:774, 1974 
0:0:23:790, 1984 
0:0:23:806, 2006 
0:0:23:821, 2036 
0:0:23:837, 2079 
0:0:23:853, 2090 
0:0:23:869, 2074 
0:0:23:885, 2034 
0:0:23:900, 1976 
0:0:23:915, 1919 
0:0:23:931, 1840 
0:0:23:946, 1759 
0:0:23:962, 1676 
0:0:23:977, 1619 
0:0:23:992, 1546 
0:0:24:8, 1482 
0:0:24:24, 1420 
0:0:24:40, 1358 
0:0:24:56, 1300 
0:0:24:71, 1267 
0:0:24:86, 1238 
0:0:24:102, 1235 
0:0:24:118, 1234 
0:0:24:133, 1229 
0:0:24:148, 1214 
0:0:24:164, 1192 
0:0:24:180, 1196 
0:0:24:196, 1322 
0:0:24:211, 1510 
0:0:24:227, 1850 
0:0:24:243, 2116 
0:0:24:259, 2446 
0:0:24:275, 2780 
0:0:24:291, 2869 
0:0:24:307, 2864 
0:0:24:322, 2792 
0:0:24:338, 2668 
0:0:24:354, 2474 
0:0:24:369, 2304 
0:0:24:384, 2183 
0:0:24:399, 2037 
0:0:24:415, 1892 
0:0:24:431, 1826 
0:0:24:447, 1792 
0:0:24:463, 1820 
0:0:24:479, 1881 
0:0:24:495, 1938 
0:0:24:511, 2007 
0:0:24:527, 2022 
0:0:24:543, 2008 
0:0:24:559, 1968 
0:0:24:575, 1911 
0:0:24:591, 1850 
0:0:24:606, 1773 
0:0:24:621, 1722 
0:0:24:637, 1634 
0:0:24:653, 1572 
0:0:24:669, 1525 
0:0:24:685, 1459 
0:0:24:701, 1407 
0:0:24:717, 1375 
0:0:24:733, 1351 
0:0:24:749, 1320 
0:0:24:765, 1297 
0:0:24:780, 1271 
0:0:24:795, 1246 
0:0:24:810, 1276 
0:0:24:825, 1379 
0:0:24:840, 1599 
0:0:24:855, 1983 
0:0:24:871, 2311 
0:0:24:887, 2666 
0:0:24:903, 2854 
0:0:24:919, 2896 
0:0:24:935, 2848 
0:0:24:951, 2768 
0:0:24:966, 2639 
0:0:24:982, 2437 
0:0:24:998, 2312 
0:0:25:14, 2077 
0:0:25:29, 1919 
0:0:25:45, 1790 
0:0:25:61, 1736 
0:0:25:76, 1758 
0:0:25:91, 1818 
0:0:25:107, 1891 
0:0:25:123, 1960 
0:0:25:139, 1983 
0:0:25:154, 1995 
0:0:25:169, 1972 
0:0:25:185, 1932 
0:0:25:200, 1901 
0:0:25:216, 1833 
0:0:25:231, 1761 
0:0:25:247, 1697 
0:0:25:263, 1595 
0:0:25:279, 1515 
0:0:25:295, 1427 
0:0:25:310, 1371 
0:0:25:325, 1336 
0:0:25:341, 1335 
0:0:25:357, 1317 
0:0:25:373, 1284 
0:0:25:389, 1236 
0:0:25:405, 1232 
0:0:25:421, 1339 
0:0:25:437, 1582 
0:0:25:452, 2038 
0:0:25:467, 2452 
0:0:25:483, 2801 
0:0:25:499, 3144 
0:0:25:515, 3250 
0:0:25:531, 3203 
0:0:25:546, 3102 
0:0:25:561, 2908 
0:0:25:577, 2730 
0:0:25:592, 2550 
0:0:25:608, 2363 
0:0:25:623, 2235 
0:0:25:639, 2050 
0:0:25:655, 1939 
0:0:25:671, 1896 
0:0:25:687, 1909 
0:0:25:703, 1964 
0:0:25:719, 2016 
0:0:25:735, 2064 
0:0:25:751, 2111 
0:0:25:767, 2128 
0:0:25:782, 2093 
0:0:25:797, 2028 
0:0:25:813, 1960 
0:0:25:828, 1879 
0:0:25:844, 1796 
0:0:25:860, 1719 
0:0:25:876, 1634 
0:0:25:892, 1538 
0:0:25:908, 1479 
0:0:25:924, 1427 
0:0:25:940, 1375 
0:0:25:956, 1325 
0:0:25:972, 1273 
0:0:25:987, 1241 
0:0:26:2, 1221 
0:0:26:17, 1226 
0:0:26:32, 1297 
0:0:26:48, 1512 
0:0:26:63, 1866 
0:0:26:78, 2292 
0:0:26:93, 2720 
0:0:26:109, 3134 
0:0:26:125, 3390 
0:0:26:140, 3478 
0:0:26:155, 3441 
0:0:26:170, 3323 
0:0:26:186, 3186 
0:0:26:202, 3059 
0:0:26:218, 2914 
0:0:26:233, 2835 
0:0:26:248, 2712 
0:0:26:263, 2550 
0:0:26:279, 2391 
0:0:26:294, 2261 
0:0:26:310, 2146 
0:0:26:326, 2116 
0:0:26:341, 2124 
0:0:26:356, 2139 
0:0:26:371, 2171 
0:0:26:387, 2191 
0:0:26:402, 2174 
0:0:26:418, 2117 
0:0:26:433, 2046 
0:0:26:449, 1974 
0:0:26:465, 1902 
0:0:26:480, 1821 
0:0:26:495, 1745 
0:0:26:510, 1650 
0:0:26:525, 1542 
0:0:26:541, 1479 
0:0:26:557, 1392 
0:0:26:573, 1340 
0:0:26:589, 1286 
0:0:26:605, 1225 
0:0:26:621, 1199 
0:0:26:637, 1161 
0:0:26:653, 1132 
0:0:26:669, 1156 
0:0:26:685, 1295 
0:0:26:701, 1694 
0:0:26:716, 2168 
0:0:26:732, 2533 
0:0:26:748, 3048 
0:0:26:764, 3369 
0:0:26:780, 3522 
0:0:26:796, 3539 
0:0:26:812, 3465 
0:0:26:827, 3372 
0:0:26:843, 3231 
0:0:26:859, 3113 
0:0:26:875, 2895 
0:0:26:891, 2726 
0:0:26:907, 2567 
0:0:26:923, 2419 
0:0:26:939, 2278 
0:0:26:954, 2222 
0:0:26:969, 2150 
0:0:26:984, 2138 
0:0:27:0, 2147 
0:0:27:16, 2142 
0:0:27:31, 2132 
0:0:27:47, 2113 
0:0:27:63, 2078 
0:0:27:78, 2022 
0:0:27:94, 1938 
0:0:27:110, 1856 
0:0:27:125, 1775 
0:0:27:141, 1677 
0:0:27:157, 1615 
0:0:27:173, 1532 
0:0:27:188, 1453 
0:0:27:203, 1392 
0:0:27:219, 1342 
0:0:27:234, 1297 
0:0:27:250, 1232 
0:0:27:266, 1193 
0:0:27:281, 1157 
0:0:27:297, 1124 
0:0:27:312, 1087 
0:0:27:327, 1050 
0:0:27:342, 1068 
0:0:27:358, 1191 
0:0:27:374, 1568 
0:0:27:389, 2004 
0:0:27:404, 2461 
0:0:27:419, 2882 
0:0:27:434, 3244 
0:0:27:450, 3393 
0:0:27:465, 3430 
0:0:27:480, 3381 
0:0:27:496, 3221 
0:0:27:512, 3077 
0:0:27:527, 2920 
0:0:27:543, 2714 
0:0:27:559, 2554 
0:0:27:575, 2347 
0:0:27:591, 2246 
0:0:27:607, 2127 
0:0:27:623, 2043 
0:0:27:639, 1998 
0:0:27:654, 1993 
0:0:27:669, 2028 
0:0:27:685, 2055 
0:0:27:701, 2048 
0:0:27:717, 2039 
0:0:27:732, 2011 
0:0:27:748, 1938 
0:0:27:764, 1855 
0:0:27:780, 1775 
0:0:27:796, 1691 
0:0:27:812, 1582 
0:0:27:828, 1489 
0:0:27:844, 1399 
0:0:27:860, 1327 
0:0:27:876, 1255 
0:0:27:891, 1198 
0:0:27:906, 1128 
0:0:27:921, 1078 
0:0:27:936, 1035 
0:0:27:952, 1018 
0:0:27:968, 994 
0:0:27:984, 961 
0:0:28:0, 974 
0:0:28:16, 1134 
0:0:28:32, 1455 
0:0:28:47, 1900 
0:0:28:63, 2477 
0:0:28:79, 2882 
0:0:28:95, 3194 
0:0:28:111, 3318 
0:0:28:126, 3347 
0:0:28:141, 3278 
0:0:28:156, 3151 
0:0:28:172, 2926 
0:0:28:188, 2715 
0:0:28:203, 2514 
0:0:28:218, 2309 
0:0:28:233, 2116 
0:0:28:249, 1978 
0:0:28:265, 1896 
0:0:28:281, 1856 
0:0:28:296, 1871 
0:0:28:311, 1922 
0:0:28:327, 1962 
0:0:28:343, 2005 
0:0:28:358, 2005 
0:0:28:373, 1977 
0:0:28:389, 1924 
0:0:28:405, 1867 
0:0:28:421, 1792 
0:0:28:436, 1711 
0:0:28:452, 1592 
0:0:28:468, 1507 
0:0:28:484, 1442 
0:0:28:499, 1403 
0:0:28:514, 1347 
0:0:28:530, 1290 
0:0:28:546, 1218 
0:0:28:562, 1130 
0:0:28:577, 1058 
0:0:28:592, 1022 
0:0:28:607, 992 
0:0:28:622, 954 
0:0:28:637, 951 
0:0:28:653, 1051 
0:0:28:668, 1308 
0:0:28:684, 1708 
0:0:28:699, 2282 
0:0:28:714, 2594 
0:0:28:729, 2852 
0:0:28:745, 3070 
0:0:28:761, 3181 
0:0:28:777, 3194 
0:0:28:793, 3109 
0:0:28:809, 2956 
0:0:28:825, 2762 
0:0:28:840, 2598 
0:0:28:856, 2318 
0:0:28:872, 2090 
0:0:28:888, 1858 
0:0:28:904, 1743 
0:0:28:920, 1699 
0:0:28:935, 1699 
0:0:28:951, 1751 
0:0:28:966, 1822 
0:0:28:982, 1924 
0:0:28:998, 1974 
0:0:29:14, 1980 
0:0:29:30, 1963 
0:0:29:45, 1902 
0:0:29:60, 1840 
0:0:29:75, 1758 
0:0:29:90, 1660 
0:0:29:106, 1588 
0:0:29:122, 1519 
0:0:29:138, 1452 
0:0:29:154, 1372 
0:0:29:170, 1285 
0:0:29:186, 1198 
0:0:29:202, 1140 
0:0:29:218, 1099 
0:0:29:233, 1070 
0:0:29:249, 1038 
0:0:29:264, 1048 
0:0:29:279, 1147 
0:0:29:294, 1398 
0:0:29:309, 1779 
0:0:29:325, 2092 
0:0:29:341, 2486 
0:0:29:357, 2897 
0:0:29:373, 3079 
0:0:29:389, 3134 
0:0:29:404, 3078 
0:0:29:419, 2989 
0:0:29:435, 2833 
0:0:29:450, 2732 
0:0:29:466, 2554 
0:0:29:482, 2219 
0:0:29:498, 1941 
0:0:29:513, 1651 
0:0:29:528, 1538 
0:0:29:543, 1469 
0:0:29:558, 1515 
0:0:29:574, 1649 
0:0:29:589, 1765 
0:0:29:605, 1905 
0:0:29:621, 1973 
0:0:29:637, 2010 
0:0:29:653, 2003 
0:0:29:669, 1963 
0:0:29:685, 1918 
0:0:29:700, 1826 
0:0:29:715, 1764 
0:0:29:730, 1707 
0:0:29:745, 1650 
0:0:29:760, 1574 
0:0:29:775, 1503 
0:0:29:791, 1407 
0:0:29:807, 1336 
0:0:29:823, 1240 
0:0:29:838, 1165 
0:0:29:854, 1103 
0:0:29:869, 1059 
0:0:29:885, 1118 
0:0:29:901, 1324 
0:0:29:917, 1704 
0:0:29:933, 2052 
0:0:29:949, 2600 
0:0:29:965, 2876 
0:0:29:981, 3204 
0:0:29:996, 3283 
0:0:30:11, 3253 
0:0:30:26, 3120 
0:0:30:42, 2939 
0:0:30:58, 2654 
0:0:30:74, 2407 
0:0:30:90, 2069 
0:0:30:106, 1837 
0:0:30:123, 1631 
0:0:30:139, 1577 
0:0:30:155, 1597 
0:0:30:171, 1684 
0:0:30:187, 1803 
0:0:30:203, 1958 
0:0:30:219, 2044 
0:0:30:234, 2103 
0:0:30:249, 2123 
0:0:30:264, 2087 
0:0:30:280, 2029 
0:0:30:296, 1930 
0:0:30:312, 1827 
0:0:30:328, 1724 
0:0:30:344, 1629 
0:0:30:359, 1537 
0:0:30:375, 1446 
0:0:30:391, 1347 
0:0:30:407, 1304 
0:0:30:423, 1240 
0:0:30:439, 1162 
0:0:30:455, 1124 
0:0:30:470, 1176 
0:0:30:485, 1511 
0:0:30:501, 1951 
0:0:30:517, 2579 
0:0:30:532, 3005 
0:0:30:548, 3365 
0:0:30:564, 3529 
0:0:30:580, 3559 
0:0:30:596, 3471 
0:0:30:612, 3274 
0:0:30:628, 3083 
0:0:30:644, 2795 
0:0:30:659, 2614 
0:0:30:675, 2336 
0:0:30:691, 2126 
0:0:30:706, 1969 
0:0:30:721, 1888 
0:0:30:737, 1882 
0:0:30:752, 1925 
0:0:30:767, 2021 
0:0:30:782, 2107 
0:0:30:798, 2171 
0:0:30:813, 2195 
0:0:30:828, 2168 
0:0:30:844, 2135 
0:0:30:860, 2055 
0:0:30:876, 1982 
0:0:30:892, 1865 
0:0:30:908, 1773 
0:0:30:923, 1681 
0:0:30:938, 1587 
0:0:30:953, 1505 
0:0:30:968, 1426 
0:0:30:983, 1369 
0:0:30:999, 1322 
0:0:31:15, 1248 
0:0:31:30, 1206 
0:0:31:46, 1251 
0:0:31:62, 1562 
0:0:31:78, 2106 
0:0:31:93, 2613 
0:0:31:108, 3077 
0:0:31:124, 3544 
0:0:31:139, 3715 
0:0:31:155, 3760 
0:0:31:170, 3731 
0:0:31:185, 3622 
0:0:31:200, 3458 
0:0:31:215, 3268 
0:0:31:231, 3053 
0:0:31:247, 2837 
0:0:31:263, 2634 
0:0:31:278, 2438 
0:0:31:294, 2252 
0:0:31:310, 2177 
0:0:31:325, 2178 
0:0:31:340, 2206 
0:0:31:356, 2263 
0:0:31:372, 2285 
0:0:31:388, 2290 
0:0:31:403, 2272 
0:0:31:418, 2195 
0:0:31:433, 2134 
0:0:31:449, 2055 
0:0:31:465, 1952 
0:0:31:480, 1865 
0:0:31:495, 1741 
0:0:31:510, 1629 
0:0:31:525, 1534 
0:0:31:541, 1428 
0:0:31:557, 1348 
0:0:31:573, 1292 
0:0:31:588, 1235 
0:0:31:603, 1174 
0:0:31:619, 1117 
0:0:31:635, 1086 
0:0:31:650, 1159 
0:0:31:666, 1483 
0:0:31:682, 1940 
0:0:31:698, 2483 
0:0:31:714, 3110 
0:0:31:729, 3419 
0:0:31:745, 3783 
0:0:31:761, 3904 
0:0:31:777, 3880 
0:0:31:793, 3763 
0:0:31:808, 3636 
0:0:31:823, 3438 
0:0:31:839, 3186 
0:0:31:855, 2993 
0:0:31:870, 2820 
0:0:31:885, 2626 
0:0:31:901, 2485 
0:0:31:917, 2378 
0:0:31:932, 2328 
0:0:31:948, 2324 
0:0:31:964, 2338 
0:0:31:979, 2334 
0:0:31:995, 2315 
0:0:32:10, 2274 
0:0:32:26, 2214 
0:0:32:42, 2142 
0:0:32:58, 2014 
0:0:32:73, 1922 
0:0:32:88, 1825 
0:0:32:103, 1725 
0:0:32:118, 1617 
0:0:32:133, 1563 
0:0:32:149, 1500 
0:0:32:165, 1380 
0:0:32:181, 1287 
0:0:32:197, 1198 
0:0:32:213, 1168 
0:0:32:228, 1138 
0:0:32:244, 1105 
0:0:32:260, 1080 
0:0:32:276, 1164 
0:0:32:291, 1399 
0:0:32:306, 1899 
0:0:32:322, 2399 
0:0:32:337, 2881 
0:0:32:352, 3422 
0:0:32:367, 3659 
0:0:32:383, 3751 
0:0:32:399, 3710 
0:0:32:415, 3625 
0:0:32:431, 3521 
0:0:32:446, 3354 
0:0:32:462, 3175 
0:0:32:477, 3000 
0:0:32:492, 2810 
0:0:32:508, 2614 
0:0:32:523, 2455 
0:0:32:539, 2327 
0:0:32:554, 2237 
0:0:32:569, 2209 
0:0:32:584, 2228 
0:0:32:600, 2255 
0:0:32:615, 2242 
0:0:32:631, 2229 
0:0:32:646, 2178 
0:0:32:662, 2095 
0:0:32:678, 1996 
0:0:32:693, 1871 
0:0:32:708, 1783 
0:0:32:724, 1692 
0:0:32:740, 1605 
0:0:32:756, 1500 
0:0:32:772, 1422 
0:0:32:788, 1340 
0:0:32:803, 1263 
0:0:32:818, 1208 
0:0:32:834, 1180 
0:0:32:850, 1142 
0:0:32:866, 1108 
0:0:32:882, 1086 
0:0:32:898, 1030 
0:0:32:914, 1037 
0:0:32:929, 1171 
0:0:32:945, 1553 
0:0:32:961, 1883 
0:0:32:976, 2495 
0:0:32:991, 2941 
0:0:33:6, 3355 
0:0:33:22, 3572 
0:0:33:38, 3613 
0:0:33:53, 3557 
0:0:33:69, 3398 
0:0:33:85, 3228 
0:0:33:101, 3025 
0:0:33:117, 2829 
0:0:33:132, 2577 
0:0:33:148, 2387 
0:0:33:164, 2245 
0:0:33:180, 2150 
0:0:33:196, 2119 
0:0:33:212, 2132 
0:0:33:228, 2149 
0:0:33:244, 2177 
0:0:33:260, 2198 
0:0:33:275, 2172 
0:0:33:290, 2136 
0:0:33:306, 2058 
0:0:33:322, 1970 
0:0:33:337, 1872 
0:0:33:353, 1770 
0:0:33:369, 1640 
0:0:33:385, 1544 
0:0:33:401, 1450 
0:0:33:417, 1348 
0:0:33:433, 1269 
0:0:33:449, 1223 
0:0:33:464, 1175 
0:0:33:481, 1163 
0:0:33:496, 1127 
0:0:33:511, 1087 
0:0:33:526, 1045 
0:0:33:541, 1026 
0:0:33:557, 1009 
0:0:33:573, 997 
0:0:33:588, 997 
0:0:33:604, 1013 
0:0:33:620, 1138 
0:0:33:636, 1406 
0:0:33:651, 1699 
0:0:33:666, 2158 
0:0:33:681, 2609 
0:0:33:697, 3104 
0:0:33:713, 3336 
0:0:33:729, 3412 
0:0:33:744, 3389 
0:0:33:759, 3270 
0:0:33:775, 3108 
0:0:33:791, 2921 
0:0:33:807, 2645 
0:0:33:823, 2422 
0:0:33:838, 2207 
0:0:33:853, 2074 
0:0:33:868, 1963 
0:0:33:883, 1920 
0:0:33:899, 1909 
0:0:33:915, 1966 
0:0:33:931, 2037 
0:0:33:947, 2086 
0:0:33:963, 2087 
0:0:33:978, 2055 
0:0:33:993, 2027 
0:0:34:9, 1979 
0:0:34:25, 1908 
0:0:34:41, 1800 
0:0:34:56, 1717 
0:0:34:72, 1602 
0:0:34:88, 1470 
0:0:34:104, 1373 
0:0:34:120, 1303 
0:0:34:135, 1240 
0:0:34:151, 1185 
0:0:34:167, 1144 
0:0:34:183, 1097 
0:0:34:199, 1041 
0:0:34:214, 1022 
0:0:34:230, 998 
0:0:34:246, 981 
0:0:34:262, 983 
0:0:34:277, 1016 
0:0:34:292, 1170 
0:0:34:308, 1572 
0:0:34:324, 2013 
0:0:34:340, 2592 
0:0:34:356, 2881 
0:0:34:372, 3221 
0:0:34:388, 3325 
0:0:34:404, 3324 
0:0:34:420, 3259 
0:0:34:435, 3118 
0:0:34:451, 2929 
0:0:34:467, 2874 
0:0:34:482, 2693 
0:0:34:498, 2395 
0:0:34:513, 2169 
0:0:34:528, 1969 
0:0:34:544, 1807 
0:0:34:560, 1772 
0:0:34:576, 1793 
0:0:34:592, 1877 
0:0:34:608, 1959 
0:0:34:624, 2038 
0:0:34:640, 2091 
0:0:34:656, 2070 
0:0:34:672, 2028 
0:0:34:687, 1954 
0:0:34:702, 1869 
0:0:34:718, 1798 
0:0:34:734, 1721 
0:0:34:749, 1648 
0:0:34:764, 1579 
0:0:34:780, 1502 
0:0:34:796, 1412 
0:0:34:812, 1328 
0:0:34:827, 1259 
0:0:34:843, 1205 
0:0:34:859, 1119 
0:0:34:889, 1070 
0:0:34:905, 1032 
0:0:34:921, 1019 
0:0:34:936, 1074 
0:0:34:952, 1249 
0:0:34:968, 1571 
0:0:34:983, 1978 
0:0:34:998, 2287 
0:0:35:14, 2751 
0:0:35:30, 3027 
0:0:35:45, 3111 
0:0:35:61, 3061 
0:0:35:77, 2877 
0:0:35:93, 2730 
0:0:35:109, 2514 
0:0:35:124, 2269 
0:0:35:139, 2033 
0:0:35:155, 1824 
0:0:35:171, 1648 
0:0:35:186, 1552 
0:0:35:202, 1537 
0:0:35:217, 1603 
0:0:35:232, 1724 
0:0:35:247, 1808 
0:0:35:263, 1928 
0:0:35:279, 1983 
0:0:35:295, 1989 
0:0:35:311, 1971 
0:0:35:327, 1903 
0:0:35:343, 1858 
0:0:35:359, 1791 
0:0:35:375, 1690 
0:0:35:391, 1586 
0:0:35:407, 1470 
0:0:35:423, 1370 
0:0:35:438, 1285 
0:0:35:453, 1224 
0:0:35:468, 1182 
0:0:35:484, 1135 
0:0:35:499, 1109 
0:0:35:514, 1069 
0:0:35:529, 1061 
0:0:35:545, 1142 
0:0:35:561, 1387 
0:0:35:576, 1795 
0:0:35:591, 2242 
0:0:35:606, 2665 
0:0:35:622, 2851 
0:0:35:637, 3177 
0:0:35:652, 3284 
0:0:35:669, 3326 
0:0:35:683, 3257 
0:0:35:698, 3058 
0:0:35:713, 2908 
0:0:35:729, 2735 
0:0:35:745, 2472 
0:0:35:761, 2227 
0:0:35:777, 1931 
0:0:35:793, 1786 
0:0:35:809, 1668 
0:0:35:825, 1657 
0:0:35:840, 1731 
0:0:35:856, 1833 
0:0:35:872, 1934 
0:0:35:888, 2053 
0:0:35:903, 2085 
0:0:35:918, 2073 
0:0:35:933, 2031 
0:0:35:949, 1986 
0:0:35:965, 1914 
0:0:35:981, 1790 
0:0:35:997, 1744 
0:0:36:12, 1722 
0:0:36:27, 1651 
0:0:36:44, 1541 
0:0:36:60, 1460 
0:0:36:76, 1369 
0:0:36:92, 1293 
0:0:36:108, 1221 
0:0:36:123, 1176 
0:0:36:139, 1122 
0:0:36:154, 1123 
0:0:36:169, 1217 
0:0:36:185, 1492 
0:0:36:201, 1919 
0:0:36:217, 2396 
0:0:36:233, 2862 
0:0:36:249, 3274 
0:0:36:265, 3510 
0:0:36:281, 3550 
0:0:36:297, 3437 
0:0:36:313, 3286 
0:0:36:329, 3143 
0:0:36:345, 2846 
0:0:36:360, 2604 
0:0:36:375, 2360 
0:0:36:390, 2100 
0:0:36:405, 1987 
0:0:36:420, 1874 
0:0:36:435, 1883 
0:0:36:450, 1944 
0:0:36:465, 2035 
0:0:36:481, 2140 
0:0:36:497, 2211 
0:0:36:513, 2219 
0:0:36:529, 2166 
0:0:36:544, 2105 
0:0:36:560, 2027 
0:0:36:576, 1933 
0:0:36:592, 1829 
0:0:36:607, 1734 
0:0:36:622, 1665 
0:0:36:638, 1533 
0:0:36:653, 1450 
0:0:36:669, 1356 
0:0:36:685, 1299 
0:0:36:701, 1247 
0:0:36:717, 1197 
0:0:36:732, 1183 
0:0:36:748, 1209 
0:0:36:764, 1370 
0:0:36:780, 1722 
0:0:36:796, 2181 
0:0:36:811, 2664 
0:0:36:827, 3209 
0:0:36:842, 3541 
0:0:36:857, 3687 
0:0:36:872, 3721 
0:0:36:887, 3663 
0:0:36:903, 3509 
0:0:36:918, 3320 
0:0:36:934, 3103 
0:0:36:950, 2927 
0:0:36:966, 2703 
0:0:36:982, 2505 
0:0:36:998, 2324 
0:0:37:14, 2194 
0:0:37:29, 2139 
0:0:37:45, 2114 
0:0:37:61, 2142 
0:0:37:77, 2182 
0:0:37:92, 2215 
0:0:37:107, 2215 
0:0:37:122, 2171 
0:0:37:138, 2114 
0:0:37:153, 2052 
0:0:37:168, 1954 
0:0:37:183, 1861 
0:0:37:199, 1782 
0:0:37:215, 1669 
0:0:37:231, 1625 
0:0:37:246, 1554 
0:0:37:261, 1473 
0:0:37:277, 1402 
0:0:37:292, 1332 
0:0:37:308, 1262 
0:0:37:323, 1211 
0:0:37:338, 1148 
0:0:37:354, 1110 
0:0:37:370, 1102 
0:0:37:386, 1175 
0:0:37:401, 1389 
0:0:37:417, 1762 
0:0:37:433, 2233 
0:0:37:448, 2829 
0:0:37:464, 3126 
0:0:37:479, 3499 
0:0:37:494, 3668 
0:0:37:510, 3664 
0:0:37:526, 3581 
0:0:37:542, 3423 
0:0:37:557, 3257 
0:0:37:572, 3137 
0:0:37:587, 2952 
0:0:37:603, 2771 
0:0:37:619, 2602 
0:0:37:634, 2399 
0:0:37:650, 2275 
0:0:37:665, 2180 
0:0:37:680, 2130 
0:0:37:696, 2139 
0:0:37:712, 2164 
0:0:37:729, 2169 
0:0:37:745, 2175 
0:0:37:761, 2172 
0:0:37:777, 2135 
0:0:37:792, 2053 
0:0:37:807, 1981 
0:0:37:822, 1893 
0:0:37:838, 1761 
0:0:37:853, 1651 
0:0:37:869, 1549 
0:0:37:885, 1482 
0:0:37:901, 1412 
0:0:37:917, 1349 
0:0:37:932, 1309 
0:0:37:948, 1266 
0:0:37:964, 1235 
0:0:37:980, 1213 
0:0:37:995, 1168 
0:0:38:10, 1121 
0:0:38:25, 1088 
0:0:38:41, 1087 
0:0:38:57, 1218 
0:0:38:73, 1509 
0:0:38:89, 2047 
0:0:38:105, 2522 
0:0:38:121, 2934 
0:0:38:137, 3311 
0:0:38:153, 3473 
0:0:38:169, 3493 
0:0:38:185, 3433 
0:0:38:200, 3342 
0:0:38:216, 3187 
0:0:38:231, 3012 
0:0:38:247, 2852 
0:0:38:262, 2715 
0:0:38:277, 2614 
0:0:38:292, 2470 
0:0:38:308, 2329 
0:0:38:324, 2233 
0:0:38:339, 2209 
0:0:38:355, 2218 
0:0:38:371, 2215 
0:0:38:387, 2205 
0:0:38:403, 2183 
0:0:38:419, 2114 
0:0:38:435, 2083 
0:0:38:451, 2042 
0:0:38:467, 1976 
0:0:38:482, 1880 
0:0:38:498, 1776 
0:0:38:513, 1684 
0:0:38:528, 1575 
0:0:38:544, 1516 
0:0:38:560, 1437 
0:0:38:575, 1356 
0:0:38:590, 1319 
0:0:38:605, 1259 
0:0:38:621, 1192 
0:0:38:636, 1148 
0:0:38:652, 1116 
0:0:38:668, 1096 
0:0:38:683, 1072 
0:0:38:699, 1062 
0:0:38:714, 1046 
0:0:38:729, 1032 
0:0:38:744, 1094 
0:0:38:760, 1284 
0:0:38:776, 1284 
0:0:38:792, 1515 
0:0:38:808, 1818 
0:0:38:823, 2387 
0:0:38:839, 2800 
0:0:38:855, 3136 
0:0:38:871, 3309 
0:0:38:887, 3320 
0:0:38:903, 3216 
0:0:38:919, 3095 
0:0:38:934, 2943 
0:0:38:949, 2769 
0:0:38:964, 2620 
0:0:38:979, 2485 
0:0:38:994, 2384 
0:0:39:10, 2246 
0:0:39:25, 2166 
0:0:39:41, 2106 
0:0:39:57, 2071 
0:0:39:73, 2065 
0:0:39:89, 2064 
0:0:39:105, 2056 
0:0:39:121, 2050 
0:0:39:136, 1998 
0:0:39:151, 1937 
0:0:39:167, 1841 
0:0:39:183, 1729 
0:0:39:198, 1660 
0:0:39:213, 1601 
0:0:39:229, 1541 
0:0:39:245, 1480 
0:0:39:261, 1434 
0:0:39:277, 1357 
0:0:39:293, 1289 
0:0:39:309, 1216 
0:0:39:324, 1167 
0:0:39:340, 1134 
0:0:39:356, 1092 
0:0:39:371, 1071 
0:0:39:386, 1055 
0:0:39:401, 1040 
0:0:39:417, 1019 
0:0:39:432, 1016 
0:0:39:447, 1031 
0:0:39:462, 1124 
0:0:39:477, 1363 
0:0:39:493, 1835 
0:0:39:509, 2267 
0:0:39:525, 2752 
0:0:39:540, 2983 
0:0:39:555, 3080 
0:0:39:570, 3173 
0:0:39:586, 3177 
0:0:39:602, 3099 
0:0:39:618, 2962 
0:0:39:634, 2834 
0:0:39:649, 2642 
0:0:39:664, 2458 
0:0:39:679, 2288 
0:0:39:695, 2135 
0:0:39:711, 2077 
0:0:39:726, 2000 
0:0:39:742, 1953 
0:0:39:758, 1933 
0:0:39:774, 1949 
0:0:39:790, 1996 
0:0:39:805, 2031 
0:0:39:820, 2034 
0:0:39:836, 2025 
0:0:39:851, 1983 
0:0:39:867, 1902 
0:0:39:883, 1793 
0:0:39:898, 1697 
0:0:39:913, 1610 
0:0:39:928, 1545 
0:0:39:944, 1469 
0:0:39:960, 1403 
0:0:39:976, 1361 
0:0:39:992, 1361 
0:0:40:8, 1347 
0:0:40:24, 1305 
0:0:40:39, 1276 
0:0:40:55, 1257 
0:0:40:70, 1223 
0:0:40:85, 1181 
0:0:40:101, 1121 
0:0:40:117, 1104 
0:0:40:133, 1091 
0:0:40:148, 1051 
0:0:40:163, 1033 
0:0:40:179, 1019 
0:0:40:195, 1091 
0:0:40:211, 1233 
0:0:40:227, 1447 
0:0:40:242, 1717 
0:0:40:258, 2222 
0:0:40:274, 2577 
0:0:40:289, 2915 
0:0:40:305, 3009 
0:0:40:321, 2985 
0:0:40:337, 2860 
0:0:40:353, 2698 
0:0:40:368, 2493 
0:0:40:383, 2306 
0:0:40:399, 2130 
0:0:40:415, 1967 
0:0:40:431, 1866 
0:0:40:447, 1759 
0:0:40:463, 1756 
0:0:40:479, 1783 
0:0:40:495, 1834 
0:0:40:511, 1886 
0:0:40:527, 1924 
0:0:40:542, 1943 
0:0:40:558, 1909 
0:0:40:574, 1870 
0:0:40:590, 1804 
0:0:40:605, 1727 
0:0:40:620, 1652 
0:0:40:636, 1597 
0:0:40:652, 1516 
0:0:40:668, 1465 
0:0:40:684, 1401 
0:0:40:700, 1328 
0:0:40:716, 1280 
0:0:40:731, 1232 
0:0:40:747, 1190 
0:0:40:763, 1155 
0:0:40:779, 1125 
0:0:40:795, 1093 
0:0:40:811, 1060 
0:0:40:827, 1044 
0:0:40:842, 1053 
0:0:40:857, 1125 
0:0:40:873, 1334 
0:0:40:889, 1737 
0:0:40:905, 2115 
0:0:40:921, 2448 
0:0:40:937, 2770 
0:0:40:953, 2869 
0:0:40:968, 2853 
0:0:40:984, 2775 
0:0:41:0, 2632 
0:0:41:16, 2589 
0:0:41:31, 2410 
0:0:41:47, 2215 
0:0:41:63, 2022 
0:0:41:78, 1889 
0:0:41:93, 1738 
0:0:41:109, 1645 
0:0:41:125, 1604 
0:0:41:140, 1622 
0:0:41:156, 1698 
0:0:41:172, 1779 
0:0:41:188, 1842 
0:0:41:204, 1875 
0:0:41:220, 1867 
0:0:41:236, 1853 
0:0:41:252, 1829 
0:0:41:268, 1775 
0:0:41:283, 1716 
0:0:41:299, 1660 
0:0:41:314, 1573 
0:0:41:329, 1517 
0:0:41:344, 1468 
0:0:41:360, 1396 
0:0:41:376, 1357 
0:0:41:392, 1312 
0:0:41:407, 1284 
0:0:41:422, 1231 
0:0:41:438, 1175 
0:0:41:454, 1147 
0:0:41:469, 1121 
0:0:41:484, 1094 
0:0:41:500, 1100 
0:0:41:515, 1197 
0:0:41:530, 1410 
0:0:41:545, 1733 
0:0:41:560, 2182 
0:0:41:575, 2487 
0:0:41:591, 2726 
0:0:41:607, 2804 
0:0:41:623, 2785 
0:0:41:639, 2667 
0:0:41:655, 2515 
0:0:41:671, 2380 
0:0:41:687, 2120 
0:0:41:702, 1965 
0:0:41:717, 1755 
0:0:41:732, 1605 
0:0:41:748, 1522 
0:0:41:764, 1529 
0:0:41:779, 1592 
0:0:41:794, 1678 
0:0:41:810, 1788 
0:0:41:825, 1852 
0:0:41:841, 1891 
0:0:41:857, 1911 
0:0:41:872, 1897 
0:0:41:888, 1849 
0:0:41:903, 1809 
0:0:41:919, 1770 
0:0:41:935, 1696 
0:0:41:950, 1628 
0:0:41:965, 1563 
0:0:41:981, 1475 
0:0:41:997, 1430 
0:0:42:12, 1395 
0:0:42:27, 1352 
0:0:42:43, 1290 
0:0:42:59, 1254 
0:0:42:74, 1233 
0:0:42:90, 1185 
0:0:42:106, 1162 
0:0:42:122, 1234 
0:0:42:138, 1446 
0:0:42:154, 1789 
0:0:42:170, 2184 
0:0:42:185, 2533 
0:0:42:201, 2830 
0:0:42:217, 2966 
0:0:42:232, 2993 
0:0:42:247, 2934 
0:0:42:262, 2799 
0:0:42:278, 2595 
0:0:42:293, 2465 
0:0:42:309, 2268 
0:0:42:325, 2062 
0:0:42:341, 1834 
0:0:42:357, 1731 
0:0:42:373, 1696 
0:0:42:389, 1724 
0:0:42:405, 1783 
0:0:42:420, 1876 
0:0:42:435, 1981 
0:0:42:451, 2048 
0:0:42:467, 2080 
0:0:42:482, 2068 
0:0:42:497, 2057 
0:0:42:512, 1993 
0:0:42:528, 1883 
0:0:42:544, 1794 
0:0:42:560, 1707 
0:0:42:576, 1622 
0:0:42:592, 1561 
0:0:42:608, 1502 
0:0:42:624, 1475 
0:0:42:640, 1429 
0:0:42:656, 1392 
0:0:42:672, 1342 
0:0:42:688, 1286 
0:0:42:703, 1255 
0:0:42:718, 1281 
0:0:42:733, 1386 
0:0:42:749, 1763 
0:0:42:765, 2169 
0:0:42:781, 2673 
0:0:42:797, 3001 
0:0:42:813, 3255 
0:0:42:828, 3309 
0:0:42:844, 3252 
0:0:42:860, 3125 
0:0:42:876, 2950 
0:0:42:892, 2688 
0:0:42:908, 2542 
0:0:42:924, 2336 
0:0:42:939, 2164 
0:0:42:954, 2066 
0:0:42:969, 1974 
0:0:42:984, 1956 
0:0:43:0, 2010 
0:0:43:16, 2063 
0:0:43:32, 2119 
0:0:43:48, 2195 
0:0:43:64, 2204 
0:0:43:80, 2162 
0:0:43:96, 2099 
0:0:43:112, 2099 
0:0:43:128, 2099 
0:0:43:143, 2059 
0:0:43:159, 1984 
0:0:43:175, 1924 
0:0:43:190, 1855 
0:0:43:205, 1781 
0:0:43:220, 1695 
0:0:43:235, 1636 
0:0:43:251, 1546 
0:0:43:266, 1481 
0:0:43:281, 1418 
0:0:43:296, 1372 
0:0:43:311, 1314 
0:0:43:327, 1295 
0:0:43:343, 1311 
0:0:43:359, 1493 
0:0:43:375, 1813 
0:0:43:391, 2318 
0:0:43:406, 2717 
0:0:43:421, 2969 
0:0:43:436, 3265 
0:0:43:451, 3331 
0:0:43:466, 3292 
0:0:43:482, 3208 
0:0:43:498, 3095 
0:0:43:514, 2936 
0:0:43:530, 2764 
0:0:43:545, 2586 
0:0:43:561, 2410 
0:0:43:577, 2230 
0:0:43:593, 2131 
0:0:43:609, 2074 
0:0:43:625, 2084 
0:0:43:640, 2102 
0:0:43:655, 2141 
0:0:43:670, 2173 
0:0:43:686, 2161 
0:0:43:702, 2107 
0:0:43:718, 2033 
0:0:43:734, 1980 
0:0:43:750, 1910 
0:0:43:766, 1822 
0:0:43:781, 1737 
0:0:43:796, 1671 
0:0:43:812, 1583 
0:0:43:828, 1522 
0:0:43:843, 1452 
0:0:43:859, 1400 
0:0:43:875, 1359 
0:0:43:890, 1323 
0:0:43:905, 1295 
0:0:43:920, 1273 
0:0:43:936, 1235 
0:0:43:951, 1237 
0:0:43:967, 1294 
0:0:43:983, 1428 
0:0:43:998, 1860 
0:0:44:13, 2298 
0:0:44:28, 2606 
0:0:44:44, 2935 
0:0:44:59, 3201 
0:0:44:74, 3274 
0:0:44:89, 3248 
0:0:44:105, 3155 
0:0:44:121, 3093 
0:0:44:136, 2904 
0:0:44:151, 2796 
0:0:44:167, 2687 
0:0:44:183, 2512 
0:0:44:198, 2392 
0:0:44:213, 2306 
0:0:44:229, 2193 
0:0:44:245, 2121 
0:0:44:261, 2066 
0:0:44:277, 2055 
0:0:44:293, 2068 
0:0:44:309, 2079 
0:0:44:325, 2081 
0:0:44:340, 2058 
0:0:44:356, 1992 
0:0:44:371, 1924 
0:0:44:386, 1838 
0:0:44:402, 1768 
0:0:44:418, 1677 
0:0:44:434, 1622 
0:0:44:450, 1561 
0:0:44:466, 1491 
0:0:44:482, 1439 
0:0:44:497, 1376 
0:0:44:513, 1340 
0:0:44:529, 1310 
0:0:44:544, 1280 
0:0:44:559, 1250 
0:0:44:575, 1229 
0:0:44:591, 1203 
0:0:44:606, 1180 
0:0:44:621, 1184 
0:0:44:637, 1258 
0:0:44:653, 1389 
0:0:44:669, 1764 
0:0:44:684, 2141 
0:0:44:700, 2501 
0:0:44:716, 2799 
0:0:44:732, 2996 
0:0:44:748, 3059 
0:0:44:764, 3015 
0:0:44:780, 2948 
0:0:44:795, 2844 
0:0:44:811, 2712 
0:0:44:827, 2546 
0:0:44:843, 2422 
0:0:44:858, 2294 
0:0:44:873, 2189 
0:0:44:889, 2124 
0:0:44:905, 2064 
0:0:44:921, 2022 
0:0:44:936, 1999 
0:0:44:952, 1989 
0:0:44:967, 1995 
0:0:44:982, 1994 
0:0:44:998, 1991 
0:0:45:14, 1980 
0:0:45:30, 1960 
0:0:45:46, 1916 
0:0:45:61, 1827 
0:0:45:76, 1748 
0:0:45:92, 1675 
0:0:45:108, 1616 
0:0:45:123, 1562 
0:0:45:139, 1506 
0:0:45:155, 1467 
0:0:45:171, 1427 
0:0:45:187, 1393 
0:0:45:203, 1357 
0:0:45:219, 1313 
0:0:45:234, 1274 
0:0:45:250, 1255 
0:0:45:266, 1232 
0:0:45:282, 1220 
0:0:45:298, 1225 
0:0:45:313, 1212 
0:0:45:328, 1197 
0:0:45:344, 1185 
0:0:45:360, 1211 
0:0:45:375, 1424 
0:0:45:391, 1639 
0:0:45:407, 1992 
0:0:45:423, 2378 
0:0:45:438, 2748 
0:0:45:454, 2943 
0:0:45:469, 3010 
0:0:45:485, 2975 
0:0:45:501, 2838 
0:0:45:517, 2745 
0:0:45:532, 2612 
0:0:45:547, 2491 
0:0:45:562, 2433 
0:0:45:578, 2319 
0:0:45:594, 2247 
0:0:45:610, 2160 
0:0:45:625, 2082 
0:0:45:640, 2023 
0:0:45:656, 1998 
0:0:45:672, 2017 
0:0:45:688, 2057 
0:0:45:704, 2080 
0:0:45:720, 2089 
0:0:45:736, 2071 
0:0:45:752, 2001 
0:0:45:767, 1934 
0:0:45:782, 1853 
0:0:45:797, 1796 
0:0:45:812, 1732 
0:0:45:828, 1645 
0:0:45:843, 1595 
0:0:45:859, 1549 
0:0:45:875, 1505 
0:0:45:890, 1455 
0:0:45:906, 1436 
0:0:45:921, 1398 
0:0:45:934, 1383 
0:0:45:952, 1369 
0:0:45:967, 1347 
0:0:45:979, 1335 
0:0:45:997, 1332 
0:0:46:12, 1327 
0:0:46:26, 1305 
0:0:46:38, 1305 
0:0:46:59, 1304 
0:0:46:71, 1291 
0:0:46:90, 1260 
0:0:46:105, 1239 
0:0:46:120, 1215 
0:0:46:135, 1277 
0:0:46:151, 1447 
0:0:46:167, 1704 
0:0:46:183, 2032 
0:0:46:199, 2459 
0:0:46:214, 2659 
0:0:46:230, 2828 
0:0:46:245, 2898 
0:0:46:260, 2858 
0:0:46:275, 2722 
0:0:46:290, 2593 
0:0:46:306, 2408 
0:0:46:322, 2281 
0:0:46:338, 2159 
0:0:46:354, 2035 
0:0:46:370, 1974 
0:0:46:386, 1926 
0:0:46:402, 1931 
0:0:46:418, 1956 
0:0:46:434, 1979 
0:0:46:450, 2003 
0:0:46:466, 2004 
0:0:46:482, 1994 
0:0:46:497, 1983 
0:0:46:512, 1938 
0:0:46:528, 1869 
0:0:46:544, 1797 
0:0:46:560, 1704 
0:0:46:576, 1639 
0:0:46:591, 1556 
0:0:46:606, 1522 
0:0:46:622, 1494 
0:0:46:637, 1462 
0:0:46:652, 1440 
0:0:46:668, 1432 
0:0:46:684, 1414 
0:0:46:700, 1400 
0:0:46:716, 1387 
0:0:46:731, 1358 
0:0:46:747, 1336 
0:0:46:763, 1322 
0:0:46:779, 1312 
0:0:46:795, 1322 
0:0:46:811, 1340 
0:0:46:827, 1401 
0:0:46:842, 1560 
0:0:46:858, 1828 
0:0:46:874, 2231 
0:0:46:890, 2489 
0:0:46:906, 2682 
0:0:46:922, 2749 
0:0:46:938, 2731 
0:0:46:954, 2617 
0:0:46:969, 2487 
0:0:46:984, 2414 
0:0:47:0, 2273 
0:0:47:16, 2109 
0:0:47:31, 2007 
0:0:47:47, 1881 
0:0:47:63, 1787 
0:0:47:79, 1768 
0:0:47:95, 1806 
0:0:47:111, 1853 
0:0:47:127, 1935 
0:0:47:143, 2022 
0:0:47:159, 2046 
0:0:47:175, 2042 
0:0:47:191, 2000 
0:0:47:206, 1939 
0:0:47:221, 1871 
0:0:47:236, 1845 
0:0:47:252, 1801 
0:0:47:268, 1759 
0:0:47:284, 1744 
0:0:47:299, 1685 
0:0:47:314, 1643 
0:0:47:330, 1594 
0:0:47:346, 1560 
0:0:47:362, 1517 
0:0:47:378, 1500 
0:0:47:394, 1482 
0:0:47:410, 1447 
0:0:47:426, 1424 
0:0:47:441, 1407 
0:0:47:456, 1386 
0:0:47:471, 1364 
0:0:47:487, 1348 
0:0:47:503, 1368 
0:0:47:519, 1485 
0:0:47:535, 1761 
0:0:47:551, 2037 
0:0:47:566, 2309 
0:0:47:582, 2583 
0:0:47:598, 2708 
0:0:47:614, 2705 
0:0:47:629, 2638 
0:0:47:644, 2511 
0:0:47:660, 2413 
0:0:47:675, 2298 
0:0:47:690, 2137 
0:0:47:705, 1983 
0:0:47:721, 1852 
0:0:47:737, 1775 
0:0:47:753, 1758 
0:0:47:769, 1794 
0:0:47:785, 1852 
0:0:47:801, 1920 
0:0:47:817, 1952 
0:0:47:833, 1977 
0:0:47:848, 1976 
0:0:47:864, 1955 
0:0:47:880, 1923 
0:0:47:896, 1887 
0:0:47:911, 1831 
0:0:47:926, 1764 
0:0:47:941, 1701 
0:0:47:957, 1647 
0:0:47:973, 1596 
0:0:47:989, 1540 
0:0:48:6, 1508 
0:0:48:22, 1498 
0:0:48:37, 1481 
0:0:48:53, 1457 
0:0:48:69, 1442 
0:0:48:85, 1417 
0:0:48:101, 1386 
0:0:48:116, 1365 
0:0:48:132, 1359 
0:0:48:148, 1392 
0:0:48:163, 1530 
0:0:48:179, 1805 
0:0:48:194, 2073 
0:0:48:210, 2417 
0:0:48:226, 2705 
0:0:48:241, 2934 
0:0:48:257, 2998 
0:0:48:273, 2982 
0:0:48:289, 2911 
0:0:48:305, 2746 
0:0:48:320, 2586 
0:0:48:336, 2429 
0:0:48:352, 2237 
0:0:48:368, 2104 
0:0:48:383, 1994 
0:0:48:398, 1953 
0:0:48:413, 1946 
0:0:48:428, 1985 
0:0:48:443, 2031 
0:0:48:459, 2077 
0:0:48:475, 2107 
0:0:48:490, 2124 
0:0:48:505, 2124 
0:0:48:520, 2099 
0:0:48:536, 2024 
0:0:48:552, 1952 
0:0:48:568, 1845 
0:0:48:584, 1765 
0:0:48:600, 1698 
0:0:48:615, 1636 
0:0:48:630, 1596 
0:0:48:646, 1562 
0:0:48:662, 1495 
0:0:48:677, 1473 
0:0:48:693, 1428 
0:0:48:708, 1407 
0:0:48:724, 1394 
0:0:48:740, 1382 
0:0:48:756, 1364 
0:0:48:772, 1360 
0:0:48:788, 1408 
0:0:48:804, 1578 
0:0:48:820, 1975 
0:0:48:835, 2358 
0:0:48:850, 2711 
0:0:48:865, 3066 
0:0:48:880, 3194 
0:0:48:896, 3277 
0:0:48:912, 3267 
0:0:48:928, 3170 
0:0:48:944, 3041 
0:0:48:960, 2878 
0:0:48:976, 2737 
0:0:48:992, 2595 
0:0:49:8, 2433 
0:0:49:24, 2354 
0:0:49:39, 2255 
0:0:49:55, 2235 
0:0:49:71, 2192 
0:0:49:86, 2184 
0:0:49:101, 2194 
0:0:49:117, 2223 
0:0:49:133, 2239 
0:0:49:148, 2247 
0:0:49:164, 2224 
0:0:49:180, 2171 
0:0:49:196, 2108 
0:0:49:212, 2025 
0:0:49:228, 1937 
0:0:49:243, 1879 
0:0:49:259, 1779 
0:0:49:275, 1705 
0:0:49:291, 1637 
0:0:49:306, 1567 
0:0:49:321, 1516 
0:0:49:337, 1464 
0:0:49:353, 1421 
0:0:49:369, 1394 
0:0:49:385, 1342 
0:0:49:401, 1304 
0:0:49:417, 1267 
0:0:49:433, 1236 
0:0:49:448, 1213 
0:0:49:464, 1233 
0:0:49:480, 1346 
0:0:49:496, 1578 
0:0:49:512, 1944 
0:0:49:528, 2373 
0:0:49:543, 2786 
0:0:49:558, 3205 
0:0:49:573, 3390 
0:0:49:588, 3470 
0:0:49:604, 3424 
0:0:49:620, 3316 
0:0:49:637, 3196 
0:0:49:653, 3053 
0:0:49:669, 2929 
0:0:49:685, 2867 
0:0:49:701, 2767 
0:0:49:717, 2608 
0:0:49:733, 2525 
0:0:49:748, 2393 
0:0:49:763, 2326 
0:0:49:778, 2269 
0:0:49:793, 2235 
0:0:49:808, 2228 
0:0:49:823, 2250 
0:0:49:839, 2258 
0:0:49:855, 2228 
0:0:49:871, 2172 
0:0:49:887, 2108 
0:0:49:903, 2044 
0:0:49:918, 1974 
0:0:49:933, 1904 
0:0:49:949, 1789 
0:0:49:965, 1716 
0:0:49:981, 1649 
0:0:49:996, 1587 
0:0:50:12, 1524 
0:0:50:27, 1462 
0:0:50:42, 1416 
0:0:50:58, 1339 
0:0:50:73, 1282 
0:0:50:88, 1224 
0:0:50:104, 1167 
0:0:50:120, 1154 
0:0:50:135, 1131 
0:0:50:150, 1126 
0:0:50:166, 1174 
0:0:50:182, 1326 
0:0:50:197, 1616 
0:0:50:212, 1992 
0:0:50:228, 2394 
0:0:50:244, 2773 
0:0:50:259, 3094 
0:0:50:274, 3276 
0:0:50:289, 3307 
0:0:50:305, 3247 
0:0:50:321, 3139 
0:0:50:336, 3005 
0:0:50:351, 2879 
0:0:50:367, 2738 
0:0:50:383, 2564 
0:0:50:398, 2442 
0:0:50:414, 2300 
0:0:50:430, 2209 
0:0:50:446, 2123 
0:0:50:462, 2090 
0:0:50:478, 2086 
0:0:50:493, 2077 
0:0:50:508, 2073 
0:0:50:523, 2053 
0:0:50:539, 2022 
0:0:50:555, 1982 
0:0:50:571, 1929 
0:0:50:586, 1839 
0:0:50:602, 1773 
0:0:50:618, 1689 
0:0:50:634, 1595 
0:0:50:650, 1575 
0:0:50:666, 1491 
0:0:50:682, 1401 
0:0:50:697, 1342 
0:0:50:713, 1285 
0:0:50:728, 1260 
0:0:50:743, 1244 
0:0:50:759, 1200 
0:0:50:775, 1154 
0:0:50:791, 1129 
0:0:50:806, 1096 
0:0:50:822, 1069 
0:0:50:837, 1045 
0:0:50:853, 1034 
0:0:50:869, 1097 
0:0:50:884, 1348 
0:0:50:899, 1701 
0:0:50:914, 2016 
0:0:50:929, 2428 
0:0:50:945, 2702 
0:0:50:960, 3032 
0:0:50:975, 3174 
0:0:50:990, 3198 
0:0:51:6, 3113 
0:0:51:22, 3013 
0:0:51:37, 2879 
0:0:51:54, 2688 
0:0:51:70, 2589 
0:0:51:86, 2414 
0:0:51:101, 2278 
0:0:51:116, 2151 
0:0:51:132, 2066 
0:0:51:147, 2041 
0:0:51:162, 2030 
0:0:51:178, 2023 
0:0:51:193, 2030 
0:0:51:208, 2030 
0:0:51:224, 2012 
0:0:51:239, 1985 
0:0:51:254, 1941 
0:0:51:270, 1875 
0:0:51:286, 1809 
0:0:51:301, 1728 
0:0:51:316, 1660 
0:0:51:332, 1644 
0:0:51:348, 1584 
0:0:51:364, 1534 
0:0:51:379, 1470 
0:0:51:395, 1392 
0:0:51:410, 1343 
0:0:51:425, 1296 
0:0:51:441, 1237 
0:0:51:457, 1196 
0:0:51:473, 1174 
0:0:51:488, 1136 
0:0:51:503, 1105 
0:0:51:518, 1088 
0:0:51:535, 1065 
0:0:51:551, 1033 
0:0:51:566, 1032 
0:0:51:582, 1059 
0:0:51:598, 1188 
0:0:51:614, 1540 
0:0:51:630, 1913 
0:0:51:645, 2305 
0:0:51:660, 2653 
0:0:51:675, 2823 
0:0:51:691, 3049 
0:0:51:707, 3106 
0:0:51:723, 3047 
0:0:51:739, 2951 
0:0:51:755, 2771 
0:0:51:771, 2609 
0:0:51:787, 2434 
0:0:51:802, 2316 
0:0:51:818, 2130 
0:0:51:834, 2004 
0:0:51:850, 1914 
0:0:51:866, 1883 
0:0:51:882, 1894 
0:0:51:897, 1920 
0:0:51:912, 1954 
0:0:51:928, 1975 
0:0:51:943, 1957 
0:0:51:959, 1932 
0:0:51:975, 1870 
0:0:51:991, 1845 
0:0:52:7, 1763 
0:0:52:23, 1692 
0:0:52:39, 1612 
0:0:52:55, 1540 
0:0:52:71, 1459 
0:0:52:86, 1397 
0:0:52:102, 1350 
0:0:52:118, 1283 
0:0:52:133, 1242 
0:0:52:148, 1217 
0:0:52:164, 1182 
0:0:52:180, 1169 
0:0:52:196, 1161 
0:0:52:212, 1137 
0:0:52:228, 1126 
0:0:52:243, 1114 
0:0:52:260, 1085 
0:0:52:276, 1090 
0:0:52:292, 1205 
0:0:52:308, 1455 
0:0:52:324, 1819 
0:0:52:339, 2207 
0:0:52:355, 2627 
0:0:52:370, 2831 
0:0:52:385, 2961 
0:0:52:401, 2986 
0:0:52:417, 2918 
0:0:52:433, 2801 
0:0:52:448, 2653 
0:0:52:464, 2471 
0:0:52:480, 2289 
0:0:52:495, 2245 
0:0:52:510, 2073 
0:0:52:526, 1907 
0:0:52:541, 1821 
0:0:52:557, 1782 
0:0:52:573, 1806 
0:0:52:588, 1864 
0:0:52:603, 1875 
0:0:52:618, 1920 
0:0:52:634, 1949 
0:0:52:650, 1942 
0:0:52:666, 1898 
0:0:52:682, 1865 
0:0:52:698, 1797 
0:0:52:714, 1748 
0:0:52:730, 1696 
0:0:52:746, 1610 
0:0:52:762, 1534 
0:0:52:778, 1470 
0:0:52:794, 1407 
0:0:52:809, 1360 
0:0:52:825, 1305 
0:0:52:840, 1252 
0:0:52:855, 1213 
0:0:52:871, 1183 
0:0:52:887, 1149 
0:0:52:903, 1141 
0:0:52:919, 1131 
0:0:52:936, 1109 
0:0:52:952, 1102 
0:0:52:968, 1136 
0:0:52:983, 1265 
0:0:52:998, 1531 
0:0:53:14, 1703 
0:0:53:29, 2072 
0:0:53:45, 2334 
0:0:53:61, 2625 
0:0:53:77, 2830 
0:0:53:92, 2925 
0:0:53:108, 2946 
0:0:53:124, 2882 
0:0:53:139, 2785 
0:0:53:155, 2618 
0:0:53:171, 2440 
0:0:53:187, 2252 
0:0:53:203, 2064 
0:0:53:218, 1936 
0:0:53:234, 1833 
0:0:53:250, 1738 
0:0:53:266, 1697 
0:0:53:281, 1731 
0:0:53:297, 1810 
0:0:53:312, 1869 
0:0:53:327, 1923 
0:0:53:342, 1953 
0:0:53:358, 1941 
0:0:53:374, 1889 
0:0:53:390, 1830 
0:0:53:406, 1780 
0:0:53:422, 1729 
0:0:53:437, 1684 
0:0:53:453, 1624 
0:0:53:469, 1558 
0:0:53:485, 1469 
0:0:53:501, 1413 
0:0:53:517, 1355 
0:0:53:533, 1316 
0:0:53:549, 1260 
0:0:53:564, 1227 
0:0:53:579, 1200 
0:0:53:595, 1170 
0:0:53:611, 1184 
0:0:53:627, 1239 
0:0:53:642, 1400 
0:0:53:657, 1683 
0:0:53:672, 2026 
0:0:53:688, 2459 
0:0:53:703, 2667 
0:0:53:719, 2890 
0:0:53:735, 2930 
0:0:53:751, 2874 
0:0:53:767, 2725 
0:0:53:782, 2601 
0:0:53:797, 2367 
0:0:53:813, 2177 
0:0:53:829, 1990 
0:0:53:844, 1836 
0:0:53:860, 1707 
0:0:53:876, 1673 
0:0:53:891, 1708 
0:0:53:907, 1757 
0:0:53:922, 1871 
0:0:53:937, 1931 
0:0:53:954, 1991 
0:0:53:970, 2019 
0:0:53:986, 1997 
0:0:54:2, 1924 
0:0:54:17, 1860 
0:0:54:32, 1809 
0:0:54:47, 1750 
0:0:54:63, 1704 
0:0:54:78, 1648 
0:0:54:94, 1560 
0:0:54:110, 1499 
0:0:54:125, 1458 
0:0:54:141, 1406 
0:0:54:157, 1376 
0:0:54:173, 1339 
0:0:54:189, 1299 
0:0:54:205, 1297 
0:0:54:220, 1378 
0:0:54:236, 1520 
0:0:54:251, 1820 
0:0:54:266, 2194 
0:0:54:281, 2562 
0:0:54:296, 2868 
0:0:54:311, 3093 
0:0:54:326, 3153 
0:0:54:342, 3101 
0:0:54:358, 2983 
0:0:54:374, 2778 
0:0:54:390, 2636 
0:0:54:406, 2446 
0:0:54:422, 2262 
0:0:54:437, 2091 
0:0:54:452, 2017 
0:0:54:467, 1908 
0:0:54:482, 1860 
0:0:54:497, 1852 
0:0:54:513, 1901 
0:0:54:529, 1969 
0:0:54:544, 2026 
0:0:54:560, 2069 
0:0:54:576, 2067 
0:0:54:592, 2040 
0:0:54:608, 2031 
0:0:54:624, 1979 
0:0:54:640, 1927 
0:0:54:655, 1884 
0:0:54:670, 1810 
0:0:54:686, 1724 
0:0:54:702, 1645 
0:0:54:717, 1575 
0:0:54:732, 1521 
0:0:54:748, 1486 
0:0:54:764, 1464 
0:0:54:780, 1428 
0:0:54:796, 1391 
0:0:54:812, 1373 
0:0:54:828, 1456 
0:0:54:844, 1672 
0:0:54:860, 1919 
0:0:54:876, 2420 
0:0:54:892, 2825 
0:0:54:907, 3092 
0:0:54:923, 3385 
0:0:54:939, 3491 
0:0:54:954, 3493 
0:0:54:969, 3393 
0:0:54:984, 3241 
0:0:55:0, 3034 
0:0:55:16, 2786 
0:0:55:32, 2588 
0:0:55:47, 2356 
0:0:55:63, 2245 
0:0:55:78, 2145 
0:0:55:93, 2114 
0:0:55:109, 2135 
0:0:55:124, 2183 
0:0:55:140, 2234 
0:0:55:156, 2271 
0:0:55:172, 2286 
0:0:55:187, 2299 
0:0:55:202, 2282 
0:0:55:217, 2220 
0:0:55:233, 2154 
0:0:55:248, 2088 
0:0:55:263, 2010 
0:0:55:278, 1926 
0:0:55:294, 1845 
0:0:55:310, 1756 
0:0:55:326, 1663 
0:0:55:342, 1591 
0:0:55:358, 1523 
0:0:55:373, 1471 
0:0:55:388, 1419 
0:0:55:404, 1398 
0:0:55:419, 1462 
0:0:55:434, 1668 
0:0:55:450, 2031 
0:0:55:465, 2466 
0:0:55:481, 2905 
0:0:55:497, 3284 
0:0:55:513, 3615 
0:0:55:529, 3670 
0:0:55:545, 3616 
0:0:55:560, 3510 
0:0:55:575, 3353 
0:0:55:591, 3172 
0:0:55:606, 2989 
0:0:55:621, 2795 
0:0:55:637, 2624 
0:0:55:652, 2512 
0:0:55:667, 2383 
0:0:55:682, 2322 
0:0:55:698, 2285 
0:0:55:714, 2275 
0:0:55:730, 2302 
0:0:55:746, 2325 
0:0:55:762, 2322 
0:0:55:778, 2306 
0:0:55:794, 2270 
0:0:55:810, 2199 
0:0:55:826, 2079 
0:0:55:842, 1996 
0:0:55:858, 1900 
0:0:55:874, 1807 
0:0:55:889, 1713 
0:0:55:904, 1650 
0:0:55:920, 1557 
0:0:55:936, 1505 
0:0:55:951, 1467 
0:0:55:967, 1416 
0:0:55:983, 1381 
0:0:55:999, 1332 
0:0:56:15, 1272 
0:0:56:31, 1246 
0:0:56:47, 1270 
0:0:56:63, 1485 
0:0:56:78, 1803 
0:0:56:93, 2094 
0:0:56:109, 2623 
0:0:56:124, 2900 
0:0:56:140, 2980 
0:0:56:156, 3222 
0:0:56:172, 3384 
0:0:56:188, 3432 
0:0:56:204, 3384 
0:0:56:220, 3263 
0:0:56:236, 3112 
0:0:56:251, 2969 
0:0:56:267, 2779 
0:0:56:283, 2640 
0:0:56:298, 2545 
0:0:56:314, 2421 
0:0:56:330, 2283 
0:0:56:346, 2208 
0:0:56:361, 2157 
0:0:56:376, 2136 
0:0:56:392, 2121 
0:0:56:408, 2104 
0:0:56:423, 2086 
0:0:56:439, 2026 
0:0:56:455, 1947 
0:0:56:471, 1874 
0:0:56:487, 1777 
0:0:56:503, 1728 
0:0:56:518, 1658 
0:0:56:534, 1575 
0:0:56:550, 1512 
0:0:56:566, 1437 
0:0:56:581, 1381 
0:0:56:596, 1325 
0:0:56:611, 1285 
0:0:56:627, 1252 
0:0:56:642, 1208 
0:0:56:658, 1178 
0:0:56:673, 1149 
0:0:56:688, 1125 
0:0:56:703, 1117 
0:0:56:718, 1103 
0:0:56:735, 1107 
0:0:56:750, 1201 
0:0:56:766, 1408 
0:0:56:782, 1742 
0:0:56:798, 2233 
0:0:56:814, 2570 
0:0:56:829, 2845 
0:0:56:844, 2953 
0:0:56:860, 2995 
0:0:56:876, 2968 
0:0:56:892, 2893 
0:0:56:908, 2794 
0:0:56:924, 2708 
0:0:56:940, 2615 
0:0:56:956, 2510 
0:0:56:972, 2429 
0:0:56:988, 2286 
0:0:57:3, 2178 
0:0:57:19, 2112 
0:0:57:35, 2031 
0:0:57:50, 2017 
0:0:57:65, 2013 
0:0:57:80, 2011 
0:0:57:95, 2012 
0:0:57:111, 1979 
0:0:57:126, 1945 
0:0:57:142, 1891 
0:0:57:158, 1819 
0:0:57:174, 1745 
0:0:57:189, 1693 
0:0:57:205, 1631 
0:0:57:221, 1566 
0:0:57:237, 1523 
0:0:57:252, 1462 
0:0:57:268, 1411 
0:0:57:284, 1368 
0:0:57:299, 1327 
0:0:57:314, 1303 
0:0:57:329, 1301 
0:0:57:345, 1278 
0:0:57:361, 1242 
0:0:57:377, 1203 
0:0:57:393, 1171 
0:0:57:409, 1146 
0:0:57:425, 1114 
0:0:57:440, 1091 
0:0:57:456, 1082 
0:0:57:472, 1076 
0:0:57:488, 1066 
0:0:57:504, 1068 
0:0:57:520, 1100 
0:0:57:536, 1181 
0:0:57:550, 1338 
0:0:57:565, 1630 
0:0:57:581, 1972 
0:0:57:597, 2300 
0:0:57:612, 2576 
0:0:57:628, 2715 
0:0:57:643, 2823 
0:0:57:659, 2840 
0:0:57:675, 2797 
0:0:57:691, 2696 
0:0:57:707, 2538 
0:0:57:723, 2422 
0:0:57:739, 2321 
0:0:57:756, 2267 
0:0:57:771, 2199 
0:0:57:786, 2122 
0:0:57:801, 2068 
0:0:57:817, 2025 
0:0:57:833, 2012 
0:0:57:848, 2018 
0:0:57:864, 2021 
0:0:57:880, 2022 
0:0:57:896, 2017 
0:0:57:912, 1986 
0:0:57:928, 1960 
0:0:57:944, 1923 
0:0:57:959, 1898 
0:0:57:974, 1843 
0:0:57:990, 1786 
0:0:58:6, 1753 
0:0:58:21, 1700 
0:0:58:36, 1640 
0:0:58:51, 1586 
0:0:58:67, 1524 
0:0:58:82, 1453 
0:0:58:97, 1423 
0:0:58:112, 1392 
0:0:58:127, 1373 
0:0:58:143, 1356 
0:0:58:159, 1345 
0:0:58:174, 1347 
0:0:58:190, 1334 
0:0:58:206, 1309 
0:0:58:222, 1284 
0:0:58:237, 1260 
0:0:58:253, 1241 
0:0:58:269, 1228 
0:0:58:285, 1199 
0:0:58:301, 1190 
0:0:58:317, 1187 
0:0:58:333, 1212 
0:0:58:349, 1333 
0:0:58:365, 1628 
0:0:58:381, 1864 
0:0:58:397, 2259 
0:0:58:413, 2491 
0:0:58:429, 2658 
0:0:58:444, 2693 
0:0:58:459, 2646 
0:0:58:474, 2552 
0:0:58:489, 2437 
0:0:58:504, 2329 
0:0:58:520, 2217 
0:0:58:536, 2122 
0:0:58:552, 2061 
0:0:58:568, 2006 
0:0:58:584, 1972 
0:0:58:600, 1958 
0:0:58:616, 1961 
0:0:58:632, 1976 
0:0:58:648, 2006 
0:0:58:663, 2004 
0:0:58:678, 1992 
0:0:58:694, 1944 
0:0:58:709, 1890 
0:0:58:724, 1838 
0:0:58:740, 1774 
0:0:58:756, 1706 
0:0:58:772, 1659 
0:0:58:788, 1611 
0:0:58:804, 1579 
0:0:58:820, 1550 
0:0:58:836, 1515 
0:0:58:851, 1491 
0:0:58:867, 1478 
0:0:58:883, 1457 
0:0:58:899, 1440 
0:0:58:915, 1418 
0:0:58:931, 1392 
0:0:58:947, 1380 
0:0:58:962, 1383 
0:0:58:978, 1397 
0:0:58:993, 1392 
0:0:59:9, 1372 
0:0:59:25, 1353 
0:0:59:41, 1333 
0:0:59:57, 1319 
0:0:59:73, 1312 
0:0:59:89, 1310 
0:0:59:105, 1347 
0:0:59:121, 1541 
0:0:59:137, 1795 
0:0:59:152, 2101 
0:0:59:168, 2463 
0:0:59:183, 2605 
0:0:59:198, 2697 
0:0:59:213, 2693 
0:0:59:228, 2627 
0:0:59:244, 2514 
0:0:59:260, 2392 
0:0:59:276, 2270 
0:0:59:292, 2172 
0:0:59:308, 2062 
0:0:59:324, 1984 
0:0:59:340, 1927 
0:0:59:356, 1891 
0:0:59:372, 1908 
0:0:59:388, 1941 
0:0:59:404, 1988 
0:0:59:419, 2019 
0:0:59:434, 2031 
0:0:59:449, 2022 
0:0:59:465, 1993 
0:0:59:480, 1946 
0:0:59:495, 1887 
0:0:59:510, 1809 
0:0:59:525, 1797 
0:0:59:541, 1758 
0:0:59:557, 1726 
0:0:59:573, 1677 
0:0:59:588, 1631 
0:0:59:604, 1581 
0:0:59:619, 1553 
0:0:59:635, 1526 
0:0:59:650, 1497 
0:0:59:665, 1487 
0:0:59:680, 1478 
0:0:59:696, 1470 
0:0:59:711, 1468 
0:0:59:726, 1455 
0:0:59:742, 1449 
0:0:59:758, 1438 
0:0:59:774, 1419 
0:0:59:790, 1392 
0:0:59:806, 1395 
0:0:59:822, 1427 
0:0:59:838, 1587 
0:0:59:853, 1820 
0:0:59:869, 2086 
0:0:59:884, 2393 
0:0:59:899, 2561 
0:0:59:915, 2612 
0:0:59:931, 2577 
0:0:59:947, 2492 
0:0:59:962, 2387 
0:0:59:977, 2264 
0:0:59:993, 2143 
0:1:0:9, 2022 
0:1:0:24, 1914 
0:1:0:39, 1855 
0:1:0:55, 1805 
0:1:0:70, 1820 
0:1:0:86, 1862 
0:1:0:102, 1936 
0:1:0:117, 1997 
0:1:0:132, 2038 
0:1:0:147, 2061 
0:1:0:163, 2047 
0:1:0:179, 2013 
0:1:0:195, 1968 
0:1:0:211, 1916 
0:1:0:226, 1889 
0:1:0:241, 1860 
0:1:0:257, 1804 
0:1:0:273, 1745 
0:1:0:289, 1682 
0:1:0:305, 1649 
0:1:0:321, 1634 
0:1:0:337, 1613 
0:1:0:353, 1580 
0:1:0:368, 1552 
0:1:0:384, 1536 
0:1:0:400, 1524 
0:1:0:416, 1509 
0:1:0:432, 1494 
0:1:0:447, 1473 
0:1:0:463, 1473 
0:1:0:479, 1546 
0:1:0:495, 1715 
0:1:0:511, 1956 
0:1:0:527, 2294 
0:1:0:542, 2527 
0:1:0:558, 2733 
0:1:0:574, 2779 
0:1:0:589, 2746 
0:1:0:604, 2664 
0:1:0:619, 2588 
0:1:0:635, 2474 
0:1:0:651, 2359 
0:1:0:667, 2269 
0:1:0:682, 2151 
0:1:0:698, 2056 
0:1:0:714, 1989 
0:1:0:730, 1960 
0:1:0:745, 1968 
0:1:0:761, 1998 
0:1:0:777, 2059 
0:1:0:793, 2094 
0:1:0:809, 2134 
0:1:0:824, 2157 
0:1:0:839, 2152 
0:1:0:854, 2113 
0:1:0:870, 2060 
0:1:0:886, 2002 
0:1:0:902, 1950 
0:1:0:918, 1889 
0:1:0:934, 1824 
0:1:0:950, 1778 
0:1:0:966, 1734 
0:1:0:982, 1709 
0:1:0:998, 1677 
0:1:1:14, 1629 
0:1:1:30, 1612 
0:1:1:45, 1594 
0:1:1:60, 1574 
0:1:1:75, 1557 
0:1:1:91, 1538 
0:1:1:107, 1519 
0:1:1:123, 1559 
0:1:1:138, 1693 
0:1:1:155, 1941 
0:1:1:170, 2183 
0:1:1:185, 2509 
0:1:1:200, 2785 
0:1:1:215, 3003 
0:1:1:231, 3065 
0:1:1:246, 3075 
0:1:1:262, 3050 
0:1:1:278, 2951 
0:1:1:293, 2848 
0:1:1:308, 2730 
0:1:1:324, 2607 
0:1:1:340, 2480 
0:1:1:356, 2337 
0:1:1:372, 2249 
0:1:1:388, 2195 
0:1:1:404, 2185 
0:1:1:420, 2194 
0:1:1:436, 2238 
0:1:1:451, 2267 
0:1:1:467, 2279 
0:1:1:483, 2286 
0:1:1:499, 2290 
0:1:1:515, 2262 
0:1:1:530, 2205 
0:1:1:545, 2136 
0:1:1:560, 2067 
0:1:1:576, 1999 
0:1:1:592, 1918 
0:1:1:608, 1860 
0:1:1:624, 1804 
0:1:1:639, 1751 
0:1:1:655, 1710 
0:1:1:671, 1667 
0:1:1:686, 1629 
0:1:1:701, 1606 
0:1:1:716, 1576 
0:1:1:732, 1538 
0:1:1:747, 1498 
0:1:1:762, 1488 
0:1:1:777, 1495 
0:1:1:793, 1574 
0:1:1:809, 1837 
0:1:1:825, 2156 
0:1:1:842, 2606 
0:1:1:858, 2921 
0:1:1:873, 3166 
0:1:1:889, 3296 
0:1:1:904, 3297 
0:1:1:920, 3256 
0:1:1:936, 3174 
0:1:1:952, 3063 
0:1:1:968, 2962 
0:1:1:983, 2867 
0:1:1:998, 2718 
0:1:2:13, 2601 
0:1:2:28, 2494 
0:1:2:44, 2391 
0:1:2:60, 2316 
0:1:2:76, 2269 
0:1:2:91, 2255 
0:1:2:106, 2282 
0:1:2:122, 2302 
0:1:2:138, 2307 
0:1:2:153, 2285 
0:1:2:169, 2235 
0:1:2:185, 2152 
0:1:2:201, 2070 
0:1:2:217, 1998 
0:1:2:232, 1946 
0:1:2:248, 1866 
0:1:2:264, 1772 
0:1:2:280, 1713 
0:1:2:296, 1646 
0:1:2:312, 1593 
0:1:2:327, 1553 
0:1:2:342, 1518 
0:1:2:357, 1491 
0:1:2:373, 1471 
0:1:2:389, 1449 
0:1:2:405, 1429 
0:1:2:421, 1379 
0:1:2:437, 1343 
0:1:2:452, 1311 
0:1:2:467, 1295 
0:1:2:482, 1406 
0:1:2:497, 1632 
0:1:2:512, 1967 
0:1:2:527, 2256 
0:1:2:543, 2619 
0:1:2:559, 2991 
0:1:2:575, 3085 
0:1:2:591, 3161 
0:1:2:607, 3155 
0:1:2:622, 3103 
0:1:2:637, 3033 
0:1:2:652, 2955 
0:1:2:668, 2822 
0:1:2:684, 2718 
0:1:2:699, 2604 
0:1:2:714, 2494 
0:1:2:729, 2441 
0:1:2:745, 2341 
0:1:2:761, 2284 
0:1:2:776, 2204 
0:1:2:792, 2170 
0:1:2:808, 2149 
0:1:2:824, 2147 
0:1:2:840, 2161 
0:1:2:855, 2142 
0:1:2:871, 2104 
0:1:2:887, 2024 
0:1:2:903, 1952 
0:1:2:919, 1898 
0:1:2:934, 1810 
0:1:2:950, 1732 
0:1:2:966, 1658 
0:1:2:982, 1584 
0:1:2:998, 1533 
0:1:3:14, 1482 
0:1:3:30, 1452 
0:1:3:45, 1413 
0:1:3:60, 1383 
0:1:3:76, 1333 
0:1:3:92, 1302 
0:1:3:108, 1286 
0:1:3:124, 1269 
0:1:3:139, 1253 
0:1:3:154, 1241 
0:1:3:169, 1223 
0:1:3:184, 1199 
0:1:3:199, 1191 
0:1:3:215, 1180 
0:1:3:231, 1170 
0:1:3:247, 1140 
0:1:3:263, 1111 
0:1:3:278, 1081 
0:1:3:293, 1096 
0:1:3:309, 1266 
0:1:3:325, 1679 
0:1:3:341, 2085 
0:1:3:356, 2401 
0:1:3:372, 2764 
0:1:3:387, 3046 
0:1:3:402, 3163 
0:1:3:417, 3174 
0:1:3:433, 3123 
0:1:3:449, 3058 
0:1:3:465, 2952 
0:1:3:481, 2856 
0:1:3:496, 2742 
0:1:3:512, 2658 
0:1:3:527, 2579 
0:1:3:542, 2481 
0:1:3:557, 2383 
0:1:3:573, 2301 
0:1:3:589, 2241 
0:1:3:604, 2228 
0:1:3:620, 2228 
0:1:3:635, 2206 
0:1:3:651, 2176 
0:1:3:667, 2139 
0:1:3:683, 2111 
0:1:3:699, 2067 
0:1:3:714, 1996 
0:1:3:729, 1930 
0:1:3:744, 1854 
0:1:3:760, 1776 
0:1:3:776, 1702 
0:1:3:792, 1647 
0:1:3:807, 1577 
0:1:3:823, 1517 
0:1:3:839, 1463 
0:1:3:854, 1434 
0:1:3:869, 1412 
0:1:3:884, 1383 
0:1:3:900, 1361 
0:1:3:915, 1337 
0:1:3:931, 1313 
0:1:3:947, 1296 
0:1:3:963, 1269 
0:1:3:979, 1251 
0:1:3:995, 1238 
0:1:4:11, 1220 
0:1:4:26, 1212 
0:1:4:41, 1190 
0:1:4:56, 1162 
0:1:4:72, 1152 
0:1:4:88, 1186 
0:1:4:103, 1336 
0:1:4:118, 1613 
0:1:4:134, 1996 
0:1:4:150, 2399 
0:1:4:166, 2743 
0:1:4:182, 2813 
0:1:4:198, 3069 
0:1:4:214, 3119 
0:1:4:230, 3107 
0:1:4:245, 3042 
0:1:4:261, 2964 
0:1:4:277, 2849 
0:1:4:293, 2762 
0:1:4:309, 2703 
0:1:4:325, 2623 
0:1:4:340, 2549 
0:1:4:355, 2468 
0:1:4:371, 2350 
0:1:4:387, 2299 
0:1:4:403, 2249 
0:1:4:419, 2220 
0:1:4:435, 2214 
0:1:4:451, 2210 
0:1:4:467, 2192 
0:1:4:483, 2168 
0:1:4:499, 2123 
0:1:4:515, 2055 
0:1:4:530, 1985 
0:1:4:546, 1900 
0:1:4:562, 1798 
0:1:4:577, 1729 
0:1:4:592, 1682 
0:1:4:607, 1639 
0:1:4:623, 1568 
0:1:4:639, 1526 
0:1:4:654, 1482 
0:1:4:670, 1435 
0:1:4:686, 1388 
0:1:4:701, 1355 
0:1:4:717, 1330 
0:1:4:733, 1297 
0:1:4:748, 1260 
0:1:4:763, 1249 
0:1:4:778, 1236 
0:1:4:795, 1230 
0:1:4:809, 1223 
0:1:4:824, 1211 
0:1:4:840, 1192 
0:1:4:855, 1167 
0:1:4:871, 1145 
0:1:4:887, 1142 
0:1:4:902, 1172 
0:1:4:917, 1301 
0:1:4:932, 1650 
0:1:4:948, 2022 
0:1:4:964, 2410 
0:1:4:979, 2742 
0:1:4:994, 2962 
0:1:5:10, 3107 
0:1:5:25, 3141 
0:1:5:40, 3133 
0:1:5:55, 3062 
0:1:5:71, 2976 
0:1:5:87, 2901 
0:1:5:103, 2790 
0:1:5:119, 2685 
0:1:5:135, 2580 
0:1:5:151, 2476 
0:1:5:167, 2388 
0:1:5:183, 2308 
0:1:5:199, 2242 
0:1:5:215, 2197 
0:1:5:231, 2184 
0:1:5:246, 2173 
0:1:5:262, 2172 
0:1:5:277, 2183 
0:1:5:292, 2186 
0:1:5:308, 2160 
0:1:5:324, 2111 
0:1:5:340, 2032 
0:1:5:356, 1957 
0:1:5:372, 1878 
0:1:5:388, 1796 
0:1:5:404, 1731 
0:1:5:419, 1671 
0:1:5:435, 1629 
0:1:5:450, 1592 
0:1:5:466, 1550 
0:1:5:482, 1507 
0:1:5:497, 1453 
0:1:5:513, 1409 
0:1:5:528, 1376 
0:1:5:544, 1354 
0:1:5:560, 1326 
0:1:5:575, 1298 
0:1:5:590, 1283 
0:1:5:605, 1263 
0:1:5:621, 1264 
0:1:5:636, 1243 
0:1:5:651, 1234 
0:1:5:667, 1204 
0:1:5:683, 1181 
0:1:5:698, 1169 
0:1:5:713, 1203 
0:1:5:728, 1324 
0:1:5:744, 1586 
0:1:5:759, 1951 
0:1:5:775, 2340 
0:1:5:791, 2679 
0:1:5:807, 2983 
0:1:5:823, 3071 
0:1:5:839, 3055 
0:1:5:855, 3006 
0:1:5:871, 2911 
0:1:5:886, 2777 
0:1:5:901, 2636 
0:1:5:916, 2501 
0:1:5:931, 2381 
0:1:5:946, 2266 
0:1:5:962, 2178 
0:1:5:977, 2129 
0:1:5:992, 2093 
0:1:6:8, 2102 
0:1:6:24, 2125 
0:1:6:40, 2150 
0:1:6:56, 2164 
0:1:6:71, 2164 
0:1:6:86, 2141 
0:1:6:102, 2088 
0:1:6:118, 1999 
0:1:6:134, 1916 
0:1:6:149, 1840 
0:1:6:165, 1779 
0:1:6:181, 1713 
0:1:6:197, 1632 
0:1:6:212, 1567 
0:1:6:227, 1514 
0:1:6:242, 1484 
0:1:6:258, 1449 
0:1:6:274, 1417 
0:1:6:290, 1396 
0:1:6:306, 1358 
0:1:6:321, 1336 
0:1:6:336, 1314 
0:1:6:352, 1290 
0:1:6:368, 1273 
0:1:6:384, 1255 
0:1:6:400, 1227 
0:1:6:416, 1212 
0:1:6:432, 1249 
0:1:6:447, 1400 
0:1:6:462, 1668 
0:1:6:477, 1919 
0:1:6:492, 2273 
0:1:6:507, 2523 
0:1:6:523, 2839 
0:1:6:539, 2923 
0:1:6:555, 2923 
0:1:6:571, 2858 
0:1:6:587, 2687 
0:1:6:603, 2526 
0:1:6:618, 2353 
0:1:6:634, 2142 
0:1:6:650, 2045 
0:1:6:666, 1934 
0:1:6:681, 1876 
0:1:6:696, 1841 
0:1:6:711, 1838 
0:1:6:726, 1862 
0:1:6:741, 1919 
0:1:6:756, 1982 
0:1:6:772, 2034 
0:1:6:788, 2046 
0:1:6:804, 2025 
0:1:6:820, 1983 
0:1:6:836, 1927 
0:1:6:852, 1849 
0:1:6:868, 1748 
0:1:6:884, 1695 
0:1:6:900, 1642 
0:1:6:915, 1587 
0:1:6:930, 1534 
0:1:6:946, 1487 
0:1:6:961, 1449 
0:1:6:977, 1395 
0:1:6:993, 1361 
0:1:7:8, 1322 
0:1:7:24, 1294 
0:1:7:39, 1261 
0:1:7:55, 1246 
0:1:7:71, 1223 
0:1:7:87, 1223 
0:1:7:103, 1266 
0:1:7:119, 1402 
0:1:7:135, 1576 
0:1:7:150, 1895 
0:1:7:165, 2156 
0:1:7:180, 2469 
0:1:7:196, 2788 
0:1:7:212, 2880 
0:1:7:227, 2894 
0:1:7:242, 2832 
0:1:7:258, 2708 
0:1:7:274, 2514 
0:1:7:289, 2390 
0:1:7:305, 2215 
0:1:7:321, 2048 
0:1:7:337, 1879 
0:1:7:353, 1781 
0:1:7:369, 1722 
0:1:7:384, 1732 
0:1:7:399, 1788 
0:1:7:415, 1854 
0:1:7:430, 1920 
0:1:7:445, 1993 
0:1:7:461, 2011 
0:1:7:476, 1999 
0:1:7:491, 1977 
0:1:7:506, 1942 
0:1:7:522, 1855 
0:1:7:537, 1784 
0:1:7:552, 1713 
0:1:7:568, 1637 
0:1:7:584, 1581 
0:1:7:600, 1516 
0:1:7:615, 1443 
0:1:7:630, 1384 
0:1:7:646, 1343 
0:1:7:662, 1309 
0:1:7:678, 1280 
0:1:7:694, 1259 
0:1:7:710, 1249 
0:1:7:726, 1293 
0:1:7:741, 1464 
0:1:7:756, 1682 
0:1:7:772, 2168 
0:1:7:788, 2581 
0:1:7:804, 2918 
0:1:7:820, 3176 
0:1:7:836, 3251 
0:1:7:852, 3219 
0:1:7:867, 3117 
0:1:7:883, 2960 
0:1:7:899, 2787 
0:1:7:915, 2652 
0:1:7:930, 2467 
0:1:7:946, 2252 
0:1:7:962, 2098 
0:1:7:978, 1984 
0:1:7:993, 1931 
0:1:8:9, 1936 
0:1:8:25, 1954 
0:1:8:41, 1989 
0:1:8:56, 2056 
0:1:8:72, 2110 
0:1:8:87, 2130 
0:1:8:102, 2122 
0:1:8:118, 2098 
0:1:8:134, 2062 
0:1:8:150, 2003 
0:1:8:166, 1926 
0:1:8:182, 1833 
0:1:8:198, 1752 
0:1:8:214, 1653 
0:1:8:229, 1593 
0:1:8:245, 1525 
0:1:8:260, 1463 
0:1:8:276, 1409 
0:1:8:292, 1364 
0:1:8:308, 1325 
0:1:8:323, 1305 
0:1:8:338, 1285 
0:1:8:353, 1273 
0:1:8:369, 1332 
0:1:8:385, 1592 
0:1:8:401, 1974 
0:1:8:417, 2421 
0:1:8:433, 2937 
0:1:8:449, 3273 
0:1:8:464, 3443 
0:1:8:479, 3489 
0:1:8:495, 3423 
0:1:8:511, 3338 
0:1:8:527, 3271 
0:1:8:543, 3109 
0:1:8:558, 2892 
0:1:8:573, 2709 
0:1:8:589, 2493 
0:1:8:605, 2385 
0:1:8:621, 2261 
0:1:8:637, 2149 
0:1:8:653, 2111 
0:1:8:669, 2119 
0:1:8:685, 2170 
0:1:8:700, 2200 
0:1:8:716, 2216 
0:1:8:732, 2216 
0:1:8:747, 2193 
0:1:8:763, 2122 
0:1:8:779, 2050 
0:1:8:794, 1961 
0:1:8:809, 1872 
0:1:8:825, 1761 
0:1:8:841, 1670 
0:1:8:856, 1595 
0:1:8:872, 1508 
0:1:8:887, 1456 
0:1:8:903, 1410 
0:1:8:919, 1386 
0:1:8:935, 1328 
0:1:8:950, 1282 
0:1:8:966, 1242 
0:1:8:981, 1198 
0:1:8:996, 1155 
0:1:9:12, 1182 
0:1:9:27, 1285 
0:1:9:42, 1569 
0:1:9:58, 2001 
0:1:9:74, 2472 
0:1:9:90, 2893 
0:1:9:106, 3069 
0:1:9:121, 3243 
0:1:9:137, 3405 
0:1:9:152, 3438 
0:1:9:168, 3418 
0:1:9:184, 3298 
0:1:9:200, 3173 
0:1:9:216, 3034 
0:1:9:232, 2869 
0:1:9:248, 2706 
0:1:9:263, 2589 
0:1:9:278, 2403 
0:1:9:293, 2286 
0:1:9:309, 2187 
0:1:9:324, 2120 
0:1:9:339, 2084 
0:1:9:354, 2072 
0:1:9:370, 2077 
0:1:9:386, 2091 
0:1:9:402, 2075 
0:1:9:418, 2039 
0:1:9:433, 1972 
0:1:9:448, 1879 
0:1:9:464, 1808 
0:1:9:480, 1721 
0:1:9:495, 1632 
0:1:9:510, 1537 
0:1:9:525, 1430 
0:1:9:540, 1356 
0:1:9:556, 1315 
0:1:9:572, 1277 
0:1:9:588, 1220 
0:1:9:604, 1184 
0:1:9:620, 1145 
0:1:9:636, 1102 
0:1:9:651, 1074 
0:1:9:666, 1045 
0:1:9:682, 1041 
0:1:9:698, 1083 
0:1:9:714, 1280 
0:1:9:729, 1506 
0:1:9:744, 1900 
0:1:9:760, 2307 
0:1:9:776, 2569 
0:1:9:792, 2832 
0:1:9:808, 2951 
0:1:9:824, 2933 
0:1:9:840, 2839 
0:1:9:856, 2670 
0:1:9:871, 2522 
0:1:9:886, 2384 
0:1:9:901, 2244 
0:1:9:917, 2190 
0:1:9:933, 2080 
0:1:9:948, 1983 
0:1:9:963, 1920 
0:1:9:978, 1866 
0:1:9:994, 1827 
0:1:10:10, 1814 
0:1:10:26, 1824 
0:1:10:42, 1831 
0:1:10:57, 1835 
0:1:10:72, 1822 
0:1:10:88, 1787 
0:1:10:104, 1753 
0:1:10:120, 1694 
0:1:10:136, 1624 
0:1:10:152, 1551 
0:1:10:167, 1500 
0:1:10:183, 1448 
0:1:10:198, 1383 
0:1:10:213, 1328 
0:1:10:229, 1270 
0:1:10:246, 1222 
0:1:10:262, 1182 
0:1:10:278, 1138 
0:1:10:293, 1118 
0:1:10:309, 1094 
0:1:10:324, 1074 
0:1:10:340, 1045 
0:1:10:356, 1020 
0:1:10:371, 1001 
0:1:10:386, 990 
0:1:10:401, 990 
0:1:10:417, 990 
0:1:10:432, 1018 
0:1:10:447, 1157 
0:1:10:463, 1432 
0:1:10:479, 1810 
0:1:10:495, 2278 
0:1:10:510, 2563 
0:1:10:525, 2757 
0:1:10:540, 2788 
0:1:10:555, 2692 
0:1:10:571, 2568 
0:1:10:587, 2459 
0:1:10:602, 2300 
0:1:10:617, 2139 
0:1:10:632, 2053 
0:1:10:648, 1915 
0:1:10:663, 1843 
0:1:10:678, 1744 
0:1:10:693, 1706 
0:1:10:709, 1693 
0:1:10:725, 1705 
0:1:10:741, 1734 
0:1:10:757, 1762 
0:1:10:773, 1776 
0:1:10:789, 1763 
0:1:10:805, 1724 
0:1:10:821, 1678 
0:1:10:836, 1625 
0:1:10:851, 1566 
0:1:10:866, 1513 
0:1:10:881, 1437 
0:1:10:896, 1381 
0:1:10:911, 1339 
0:1:10:927, 1282 
0:1:10:943, 1256 
0:1:10:959, 1233 
0:1:10:975, 1214 
0:1:10:991, 1203 
0:1:11:6, 1179 
0:1:11:21, 1146 
0:1:11:36, 1120 
0:1:11:52, 1103 
0:1:11:68, 1093 
0:1:11:84, 1091 
0:1:11:100, 1088 
0:1:11:116, 1134 
0:1:11:131, 1236 
0:1:11:146, 1487 
0:1:11:162, 1839 
0:1:11:179, 2194 
0:1:11:195, 2415 
0:1:11:210, 2577 
0:1:11:226, 2684 
0:1:11:242, 2680 
0:1:11:258, 2560 
0:1:11:273, 2415 
0:1:11:288, 2274 
0:1:11:304, 2126 
0:1:11:320, 1979 
0:1:11:336, 1811 
0:1:11:351, 1678 
0:1:11:366, 1601 
0:1:11:381, 1575 
0:1:11:396, 1592 
0:1:11:411, 1629 
0:1:11:427, 1688 
0:1:11:443, 1736 
0:1:11:458, 1765 
0:1:11:474, 1777 
0:1:11:491, 1751 
0:1:11:507, 1714 
0:1:11:523, 1653 
0:1:11:539, 1577 
0:1:11:554, 1522 
0:1:11:570, 1465 
0:1:11:586, 1406 
0:1:11:601, 1374 
0:1:11:616, 1317 
0:1:11:631, 1298 
0:1:11:647, 1266 
0:1:11:662, 1244 
0:1:11:678, 1224 
0:1:11:693, 1212 
0:1:11:709, 1200 
0:1:11:724, 1199 
0:1:11:739, 1207 
0:1:11:754, 1208 
0:1:11:769, 1197 
0:1:11:785, 1178 
0:1:11:801, 1163 
0:1:11:817, 1219 
0:1:11:832, 1390 
0:1:11:848, 1686 
0:1:11:863, 1947 
0:1:11:879, 2347 
0:1:11:895, 2573 
0:1:11:911, 2685 
0:1:11:927, 2667 
0:1:11:942, 2526 
0:1:11:957, 2397 
0:1:11:973, 2307 
0:1:11:989, 2071 
0:1:12:5, 1896 
0:1:12:21, 1715 
0:1:12:37, 1596 
0:1:12:52, 1531 
0:1:12:67, 1484 
0:1:12:82, 1491 
0:1:12:98, 1546 
0:1:12:114, 1636 
0:1:12:130, 1715 
0:1:12:146, 1784 
0:1:12:162, 1801 
0:1:12:178, 1804 
0:1:12:194, 1792 
0:1:12:210, 1764 
0:1:12:225, 1726 
0:1:12:241, 1660 
0:1:12:256, 1606 
0:1:12:272, 1533 
0:1:12:287, 1482 
0:1:12:302, 1438 
0:1:12:317, 1402 
0:1:12:333, 1364 
0:1:12:349, 1334 
0:1:12:365, 1288 
0:1:12:381, 1267 
0:1:12:397, 1241 
0:1:12:413, 1223 
0:1:12:429, 1218 
0:1:12:445, 1209 
0:1:12:460, 1208 
0:1:12:476, 1218 
0:1:12:492, 1264 
0:1:12:508, 1412 
0:1:12:524, 1748 
0:1:12:539, 2081 
0:1:12:555, 2401 
0:1:12:571, 2667 
0:1:12:587, 2715 
0:1:12:603, 2681 
0:1:12:619, 2517 
0:1:12:635, 2337 
0:1:12:650, 2191 
0:1:12:666, 2040 
0:1:12:682, 1850 
0:1:12:698, 1634 
0:1:12:714, 1495 
0:1:12:730, 1418 
0:1:12:746, 1399 
0:1:12:762, 1465 
0:1:12:777, 1565 
0:1:12:792, 1653 
0:1:12:808, 1761 
0:1:12:824, 1848 
0:1:12:840, 1891 
0:1:12:855, 1891 
0:1:12:870, 1902 
0:1:12:886, 1895 
0:1:12:902, 1861 
0:1:12:918, 1785 
0:1:12:934, 1720 
0:1:12:950, 1640 
0:1:12:966, 1594 
0:1:12:981, 1561 
0:1:12:996, 1516 
0:1:13:11, 1467 
0:1:13:26, 1409 
0:1:13:42, 1371 
0:1:13:57, 1338 
0:1:13:72, 1319 
0:1:13:88, 1307 
0:1:13:104, 1299 
0:1:13:120, 1289 
0:1:13:136, 1274 
0:1:13:152, 1298 
0:1:13:168, 1421 
0:1:13:184, 1669 
0:1:13:199, 2008 
0:1:13:215, 2264 
0:1:13:231, 2541 
0:1:13:246, 2641 
0:1:13:262, 2754 
0:1:13:278, 2701 
0:1:13:294, 2611 
0:1:13:309, 2443 
0:1:13:325, 2252 
0:1:13:341, 2005 
0:1:13:356, 1809 
0:1:13:371, 1624 
0:1:13:386, 1467 
0:1:13:402, 1372 
0:1:13:418, 1395 
0:1:13:433, 1507 
0:1:13:448, 1639 
0:1:13:463, 1765 
0:1:13:478, 1875 
0:1:13:493, 1944 
0:1:13:509, 1969 
0:1:13:525, 1964 
0:1:13:541, 1907 
0:1:13:556, 1856 
0:1:13:572, 1801 
0:1:13:588, 1722 
0:1:13:603, 1657 
0:1:13:618, 1598 
0:1:13:633, 1565 
0:1:13:648, 1523 
0:1:13:663, 1483 
0:1:13:678, 1449 
0:1:13:694, 1400 
0:1:13:709, 1368 
0:1:13:724, 1354 
0:1:13:740, 1345 
0:1:13:755, 1378 
0:1:13:771, 1558 
0:1:13:787, 1840 
0:1:13:803, 2202 
0:1:13:819, 2623 
0:1:13:835, 2867 
0:1:13:851, 2994 
0:1:13:866, 2974 
0:1:13:881, 2934 
0:1:13:897, 2791 
0:1:13:913, 2558 
0:1:13:929, 2510 
0:1:13:944, 2308 
0:1:13:959, 2102 
0:1:13:975, 1912 
0:1:13:991, 1756 
0:1:14:7, 1653 
0:1:14:24, 1630 
0:1:14:40, 1691 
0:1:14:56, 1786 
0:1:14:72, 1929 
0:1:14:88, 2035 
0:1:14:104, 2108 
0:1:14:120, 2154 
0:1:14:136, 2160 
0:1:14:151, 2140 
0:1:14:167, 2114 
0:1:14:182, 2064 
0:1:14:197, 2004 
0:1:14:212, 1960 
0:1:14:228, 1897 
0:1:14:244, 1820 
0:1:14:260, 1761 
0:1:14:276, 1694 
0:1:14:292, 1653 
0:1:14:308, 1608 
0:1:14:324, 1555 
0:1:14:339, 1536 
0:1:14:354, 1554 
0:1:14:369, 1694 
0:1:14:384, 1971 
0:1:14:400, 2338 
0:1:14:415, 2720 
0:1:14:430, 3024 
0:1:14:446, 3244 
0:1:14:461, 3300 
0:1:14:477, 3233 
0:1:14:493, 3112 
0:1:14:509, 2946 
0:1:14:525, 2712 
0:1:14:541, 2571 
0:1:14:557, 2388 
0:1:14:573, 2197 
0:1:14:588, 2094 
0:1:14:603, 2045 
0:1:14:619, 2061 
0:1:14:635, 2119 
0:1:14:650, 2207 
0:1:14:665, 2253 
0:1:14:680, 2331 
0:1:14:696, 2387 
0:1:14:712, 2401 
0:1:14:728, 2385 
0:1:14:744, 2359 
0:1:14:759, 2302 
0:1:14:775, 2204 
0:1:14:791, 2127 
0:1:14:807, 2053 
0:1:14:823, 1974 
0:1:14:838, 1922 
0:1:14:854, 1874 
0:1:14:870, 1817 
0:1:14:885, 1769 
0:1:14:900, 1729 
0:1:14:916, 1705 
0:1:14:932, 1712 
0:1:14:948, 1826 
0:1:14:963, 2082 
0:1:14:979, 2453 
0:1:14:995, 2937 
0:1:15:11, 3248 
0:1:15:27, 3463 
0:1:15:43, 3501 
0:1:15:58, 3489 
0:1:15:74, 3460 
0:1:15:90, 3342 
0:1:15:106, 3163 
0:1:15:121, 3044 
0:1:15:136, 2881 
0:1:15:152, 2763 
0:1:15:168, 2610 
0:1:15:183, 2474 
0:1:15:199, 2356 
0:1:15:215, 2315 
0:1:15:231, 2311 
0:1:15:247, 2356 
0:1:15:262, 2412 
0:1:15:278, 2442 
0:1:15:294, 2471 
0:1:15:310, 2463 
0:1:15:326, 2414 
0:1:15:342, 2352 
0:1:15:358, 2280 
0:1:15:373, 2211 
0:1:15:389, 2135 
0:1:15:405, 2079 
0:1:15:421, 2015 
0:1:15:437, 1936 
0:1:15:452, 1865 
0:1:15:468, 1807 
0:1:15:484, 1763 
0:1:15:500, 1731 
0:1:15:516, 1699 
0:1:15:531, 1686 
0:1:15:546, 1723 
0:1:15:562, 1817 
0:1:15:578, 2064 
0:1:15:593, 2416 
0:1:15:608, 2874 
0:1:15:623, 3171 
0:1:15:639, 3374 
0:1:15:654, 3422 
0:1:15:670, 3414 
0:1:15:685, 3314 
0:1:15:700, 3224 
0:1:15:716, 3082 
0:1:15:732, 2937 
0:1:15:747, 2799 
0:1:15:763, 2661 
0:1:15:779, 2542 
0:1:15:795, 2451 
0:1:15:810, 2381 
0:1:15:825, 2343 
0:1:15:840, 2328 
0:1:15:855, 2331 
0:1:15:871, 2365 
0:1:15:886, 2386 
0:1:15:901, 2385 
0:1:15:917, 2355 
0:1:15:933, 2299 
0:1:15:949, 2248 
0:1:15:965, 2197 
0:1:15:981, 2118 
0:1:15:997, 2031 
0:1:16:13, 1967 
0:1:16:29, 1888 
0:1:16:45, 1824 
0:1:16:61, 1775 
0:1:16:76, 1714 
0:1:16:91, 1685 
0:1:16:107, 1656 
0:1:16:123, 1625 
0:1:16:139, 1594 
0:1:16:154, 1558 
0:1:16:170, 1526 
0:1:16:186, 1513 
0:1:16:202, 1484 
0:1:16:218, 1478 
0:1:16:233, 1511 
0:1:16:248, 1643 
0:1:16:264, 1997 
0:1:16:280, 2369 
0:1:16:295, 2793 
0:1:16:310, 3036 
0:1:16:325, 3166 
0:1:16:341, 3189 
0:1:16:356, 3120 
0:1:16:372, 2999 
0:1:16:387, 2867 
0:1:16:403, 2778 
0:1:16:418, 2671 
0:1:16:434, 2586 
0:1:16:449, 2513 
0:1:16:465, 2436 
0:1:16:480, 2381 
0:1:16:496, 2297 
0:1:16:511, 2271 
0:1:16:526, 2253 
0:1:16:541, 2250 
0:1:16:556, 2255 
0:1:16:572, 2264 
0:1:16:587, 2260 
0:1:16:602, 2232 
0:1:16:617, 2178 
0:1:16:633, 2116 
0:1:16:649, 2061 
0:1:16:665, 2008 
0:1:16:680, 1933 
0:1:16:695, 1855 
0:1:16:711, 1763 
0:1:16:727, 1701 
0:1:16:743, 1662 
0:1:16:758, 1617 
0:1:16:773, 1589 
0:1:16:788, 1563 
0:1:16:803, 1528 
0:1:16:819, 1493 
0:1:16:835, 1467 
0:1:16:851, 1442 
0:1:16:867, 1424 
0:1:16:883, 1394 
0:1:16:899, 1380 
0:1:16:914, 1367 
0:1:16:930, 1351 
0:1:16:946, 1344 
0:1:16:961, 1384 
0:1:16:977, 1533 
0:1:16:992, 1875 
0:1:17:7, 2220 
0:1:17:23, 2609 
0:1:17:39, 2769 
0:1:17:55, 2893 
0:1:17:71, 2884 
0:1:17:87, 2815 
0:1:17:103, 2687 
0:1:17:118, 2585 
0:1:17:134, 2502 
0:1:17:149, 2420 
0:1:17:165, 2351 
0:1:17:180, 2300 
0:1:17:195, 2230 
0:1:17:211, 2172 
0:1:17:226, 2133 
0:1:17:241, 2112 
0:1:17:256, 2112 
0:1:17:272, 2111 
0:1:17:288, 2100 
0:1:17:304, 2087 
0:1:17:320, 2068 
0:1:17:336, 2033 
0:1:17:353, 1985 
0:1:17:369, 1941 
0:1:17:385, 1897 
0:1:17:400, 1847 
0:1:17:416, 1800 
0:1:17:432, 1755 
0:1:17:448, 1701 
0:1:17:463, 1660 
0:1:17:479, 1608 
0:1:17:495, 1548 
0:1:17:511, 1519 
0:1:17:527, 1485 
0:1:17:543, 1453 
0:1:17:558, 1424 
0:1:17:573, 1401 
0:1:17:589, 1387 
0:1:17:605, 1375 
0:1:17:621, 1361 
0:1:17:637, 1352 
0:1:17:653, 1335 
0:1:17:669, 1310 
0:1:17:684, 1291 
0:1:17:699, 1266 
0:1:17:714, 1259 
0:1:17:730, 1303 
0:1:17:746, 1525 
0:1:17:763, 1818 
0:1:17:779, 2147 
0:1:17:795, 2499 
0:1:17:810, 2704 
0:1:17:826, 2782 
0:1:17:842, 2767 
0:1:17:858, 2713 
0:1:17:873, 2641 
0:1:17:889, 2535 
0:1:17:905, 2440 
0:1:17:921, 2369 
0:1:17:936, 2313 
0:1:17:951, 2242 
0:1:17:967, 2181 
0:1:17:983, 2125 
0:1:17:999, 2072 
0:1:18:15, 2058 
0:1:18:31, 2057 
0:1:18:47, 2060 
0:1:18:62, 2069 
0:1:18:78, 2061 
0:1:18:93, 2026 
0:1:18:108, 1976 
0:1:18:124, 1911 
0:1:18:140, 1875 
0:1:18:156, 1839 
0:1:18:171, 1814 
0:1:18:186, 1774 
0:1:18:202, 1733 
0:1:18:218, 1680 
0:1:18:234, 1631 
0:1:18:250, 1596 
0:1:18:266, 1563 
0:1:18:281, 1524 
0:1:18:297, 1490 
0:1:18:312, 1475 
0:1:18:328, 1456 
0:1:18:344, 1453 
0:1:18:361, 1443 
0:1:18:377, 1413 
0:1:18:393, 1368 
0:1:18:408, 1341 
0:1:18:423, 1318 
0:1:18:438, 1305 
0:1:18:453, 1292 
0:1:18:469, 1287 
0:1:18:485, 1284 
0:1:18:501, 1341 
0:1:18:517, 1490 
0:1:18:532, 1807 
0:1:18:548, 2126 
0:1:18:563, 2404 
0:1:18:579, 2591 
0:1:18:595, 2689 
0:1:18:611, 2653 
0:1:18:627, 2568 
0:1:18:642, 2465 
0:1:18:657, 2372 
0:1:18:673, 2297 
0:1:18:689, 2214 
0:1:18:705, 2130 
0:1:18:721, 2094 
0:1:18:737, 2026 
0:1:18:752, 1984 
0:1:18:768, 1970 
0:1:18:784, 1967 
0:1:18:800, 1995 
0:1:18:816, 2015 
0:1:18:832, 2027 
0:1:18:847, 2030 
0:1:18:863, 2005 
0:1:18:878, 1971 
0:1:18:893, 1942 
0:1:18:909, 1891 
0:1:18:925, 1826 
0:1:18:941, 1774 
0:1:18:956, 1723 
0:1:18:972, 1666 
0:1:18:988, 1633 
0:1:19:4, 1593 
0:1:19:20, 1569 
0:1:19:36, 1545 
0:1:19:52, 1531 
0:1:19:68, 1521 
0:1:19:84, 1504 
0:1:19:100, 1481 
0:1:19:115, 1455 
0:1:19:130, 1439 
0:1:19:146, 1424 
0:1:19:162, 1416 
0:1:19:177, 1405 
0:1:19:193, 1384 
0:1:19:209, 1375 
0:1:19:225, 1353 
0:1:19:241, 1344 
0:1:19:256, 1349 
0:1:19:273, 1400 
0:1:19:289, 1559 
0:1:19:305, 1814 
0:1:19:321, 2104 
0:1:19:336, 2415 
0:1:19:351, 2584 
0:1:19:366, 2625 
0:1:19:382, 2624 
0:1:19:398, 2562 
0:1:19:413, 2455 
0:1:19:428, 2345 
0:1:19:444, 2209 
0:1:19:460, 2166 
0:1:19:475, 2089 
0:1:19:490, 2037 
0:1:19:506, 1982 
0:1:19:521, 1957 
0:1:19:536, 1936 
0:1:19:553, 1954 
0:1:19:568, 1980 
0:1:19:584, 2019 
0:1:19:599, 2036 
0:1:19:615, 2044 
0:1:19:630, 2031 
0:1:19:645, 2008 
0:1:19:660, 1963 
0:1:19:676, 1899 
0:1:19:692, 1843 
0:1:19:709, 1798 
0:1:19:725, 1754 
0:1:19:740, 1720 
0:1:19:755, 1686 
0:1:19:771, 1662 
0:1:19:787, 1624 
0:1:19:802, 1587 
0:1:19:817, 1550 
0:1:19:832, 1530 
0:1:19:847, 1519 
0:1:19:863, 1500 
0:1:19:878, 1495 
0:1:19:893, 1486 
0:1:19:909, 1474 
0:1:19:925, 1463 
0:1:19:941, 1435 
0:1:19:956, 1411 
0:1:19:972, 1393 
0:1:19:988, 1421 
0:1:20:4, 1526 
0:1:20:20, 1725 
0:1:20:36, 1979 
0:1:20:51, 2290 
0:1:20:66, 2433 
0:1:20:81, 2548 
0:1:20:97, 2588 
0:1:20:113, 2528 
0:1:20:129, 2423 
0:1:20:145, 2305 
0:1:20:160, 2245 
0:1:20:176, 2101 
0:1:20:192, 2006 
0:1:20:207, 1915 
0:1:20:223, 1863 
0:1:20:239, 1853 
0:1:20:255, 1863 
0:1:20:270, 1897 
0:1:20:285, 1941 
0:1:20:300, 1992 
0:1:20:316, 2032 
0:1:20:332, 2041 
0:1:20:348, 2031 
0:1:20:364, 2014 
0:1:20:380, 1974 
0:1:20:396, 1903 
0:1:20:412, 1839 
0:1:20:427, 1786 
0:1:20:442, 1748 
0:1:20:458, 1713 
0:1:20:474, 1691 
0:1:20:490, 1667 
0:1:20:506, 1633 
0:1:20:521, 1620 
0:1:20:536, 1603 
0:1:20:551, 1585 
0:1:20:567, 1570 
0:1:20:583, 1549 
0:1:20:599, 1528 
0:1:20:615, 1507 
0:1:20:631, 1485 
0:1:20:647, 1477 
0:1:20:662, 1534 
0:1:20:678, 1680 
0:1:20:694, 1913 
0:1:20:710, 2182 
0:1:20:726, 2416 
0:1:20:742, 2608 
0:1:20:757, 2677 
0:1:20:772, 2680 
0:1:20:788, 2618 
0:1:20:804, 2572 
0:1:20:820, 2456 
0:1:20:836, 2305 
0:1:20:852, 2182 
0:1:20:868, 2045 
0:1:20:884, 1969 
0:1:20:900, 1922 
0:1:20:916, 1911 
0:1:20:932, 1937 
0:1:20:948, 1980 
0:1:20:963, 2024 
0:1:20:979, 2072 
0:1:20:994, 2105 
0:1:21:9, 2125 
0:1:21:24, 2113 
0:1:21:40, 2053 
0:1:21:56, 2000 
0:1:21:72, 1944 
0:1:21:88, 1863 
0:1:21:104, 1807 
0:1:21:120, 1742 
0:1:21:136, 1713 
0:1:21:152, 1698 
0:1:21:168, 1681 
0:1:21:184, 1651 
0:1:21:200, 1634 
0:1:21:216, 1618 
0:1:21:231, 1599 
0:1:21:246, 1583 
0:1:21:261, 1557 
0:1:21:277, 1536 
0:1:21:293, 1522 
0:1:21:309, 1543 
0:1:21:325, 1693 
0:1:21:341, 1922 
0:1:21:357, 2286 
0:1:21:373, 2497 
0:1:21:388, 2677 
0:1:21:404, 2870 
0:1:21:420, 2928 
0:1:21:436, 2917 
0:1:21:452, 2849 
0:1:21:467, 2744 
0:1:21:482, 2629 
0:1:21:498, 2495 
0:1:21:514, 2383 
0:1:21:530, 2285 
0:1:21:545, 2220 
0:1:21:561, 2155 
0:1:21:576, 2133 
0:1:21:592, 2132 
0:1:21:607, 2152 
0:1:21:623, 2193 
0:1:21:639, 2234 
0:1:21:655, 2247 
0:1:21:671, 2254 
0:1:21:687, 2224 
0:1:21:702, 2175 
0:1:21:717, 2119 
0:1:21:733, 2049 
0:1:21:749, 1965 
0:1:21:764, 1920 
0:1:21:779, 1873 
0:1:21:795, 1814 
0:1:21:811, 1749 
0:1:21:827, 1699 
0:1:21:843, 1652 
0:1:21:858, 1615 
0:1:21:874, 1588 
0:1:21:890, 1582 
0:1:21:906, 1564 
0:1:21:922, 1532 
0:1:21:937, 1522 
0:1:21:952, 1549 
0:1:21:967, 1678 
0:1:21:983, 1790 
0:1:21:998, 2088 
0:1:22:14, 2446 
0:1:22:29, 2700 
0:1:22:45, 3020 
0:1:22:60, 3167 
0:1:22:76, 3217 
0:1:22:92, 3205 
0:1:22:108, 3145 
0:1:22:124, 3042 
0:1:22:140, 2894 
0:1:22:156, 2806 
0:1:22:171, 2716 
0:1:22:186, 2605 
0:1:22:201, 2524 
0:1:22:217, 2424 
0:1:22:233, 2347 
0:1:22:249, 2299 
0:1:22:265, 2275 
0:1:22:281, 2302 
0:1:22:297, 2346 
0:1:22:313, 2359 
0:1:22:329, 2346 
0:1:22:345, 2319 
0:1:22:360, 2319 
0:1:22:376, 2267 
0:1:22:391, 2221 
0:1:22:406, 2163 
0:1:22:421, 2099 
0:1:22:436, 2027 
0:1:22:452, 1950 
0:1:22:468, 1887 
0:1:22:483, 1835 
0:1:22:499, 1755 
0:1:22:515, 1707 
0:1:22:531, 1653 
0:1:22:547, 1616 
0:1:22:562, 1597 
0:1:22:578, 1576 
0:1:22:594, 1564 
0:1:22:609, 1544 
0:1:22:625, 1520 
0:1:22:640, 1492 
0:1:22:656, 1470 
0:1:22:672, 1460 
0:1:22:687, 1524 
0:1:22:703, 1721 
0:1:22:718, 2036 
0:1:22:733, 2431 
0:1:22:749, 2824 
0:1:22:765, 3202 
0:1:22:781, 3387 
0:1:22:797, 3418 
0:1:22:812, 3388 
0:1:22:828, 3331 
0:1:22:844, 3191 
0:1:22:860, 3038 
0:1:22:875, 2926 
0:1:22:890, 2831 
0:1:22:906, 2748 
0:1:22:922, 2655 
0:1:22:938, 2548 
0:1:22:953, 2483 
0:1:22:968, 2441 
0:1:22:984, 2435 
0:1:22:999, 2441 
0:1:23:15, 2455 
0:1:23:31, 2455 
0:1:23:47, 2415 
0:1:23:63, 2361 
0:1:23:79, 2258 
0:1:23:95, 2181 
0:1:23:110, 2075 
0:1:23:125, 1983 
0:1:23:141, 1902 
0:1:23:156, 1833 
0:1:23:171, 1773 
0:1:23:187, 1716 
0:1:23:202, 1674 
0:1:23:218, 1625 
0:1:23:234, 1588 
0:1:23:250, 1547 
0:1:23:265, 1501 
0:1:23:280, 1479 
0:1:23:295, 1465 
0:1:23:310, 1439 
0:1:23:326, 1413 
0:1:23:341, 1389 
0:1:23:356, 1375 
0:1:23:372, 1364 
0:1:23:388, 1332 
0:1:23:404, 1316 
0:1:23:419, 1308 
0:1:23:434, 1310 
0:1:23:450, 1385 
0:1:23:466, 1591 
0:1:23:482, 1934 
0:1:23:498, 2465 
0:1:23:514, 2872 
0:1:23:530, 3306 
0:1:23:546, 3498 
0:1:23:561, 3537 
0:1:23:576, 3539 
0:1:23:591, 3483 
0:1:23:606, 3387 
0:1:23:622, 3281 
0:1:23:638, 3182 
0:1:23:654, 3085 
0:1:23:670, 2989 
0:1:23:686, 2891 
0:1:23:702, 2786 
0:1:23:718, 2694 
0:1:23:733, 2638 
0:1:23:749, 2597 
0:1:23:765, 2567 
0:1:23:781, 2547 
0:1:23:797, 2520 
0:1:23:812, 2474 
0:1:23:827, 2434 
0:1:23:842, 2381 
0:1:23:857, 2306 
0:1:23:873, 2238 
0:1:23:889, 2152 
0:1:23:905, 2060 
0:1:23:921, 1956 
0:1:23:937, 1863 
0:1:23:953, 1766 
0:1:23:968, 1701 
0:1:23:984, 1632 
0:1:24:0, 1567 
0:1:24:16, 1538 
0:1:24:32, 1522 
0:1:24:47, 1495 
0:1:24:63, 1460 
0:1:24:79, 1440 
0:1:24:95, 1418 
0:1:24:111, 1401 
0:1:24:127, 1380 
0:1:24:142, 1348 
0:1:24:157, 1322 
0:1:24:172, 1292 
0:1:24:187, 1271 
0:1:24:203, 1244 
0:1:24:219, 1232 
0:1:24:234, 1271 
0:1:24:250, 1381 
0:1:24:265, 1572 
0:1:24:280, 1845 
0:1:24:295, 2179 
0:1:24:311, 2726 
0:1:24:327, 3078 
0:1:24:343, 3393 
0:1:24:359, 3473 
0:1:24:375, 3460 
0:1:24:391, 3386 
0:1:24:407, 3292 
0:1:24:423, 3157 
0:1:24:439, 3078 
0:1:24:455, 2980 
0:1:24:471, 2853 
0:1:24:487, 2763 
0:1:24:503, 2677 
0:1:24:518, 2584 
0:1:24:533, 2530 
0:1:24:549, 2501 
0:1:24:565, 2462 
0:1:24:581, 2442 
0:1:24:597, 2412 
0:1:24:613, 2374 
0:1:24:629, 2280 
0:1:24:645, 2204 
0:1:24:661, 2136 
0:1:24:677, 2036 
0:1:24:693, 1951 
0:1:24:709, 1843 
0:1:24:725, 1759 
0:1:24:740, 1704 
0:1:24:755, 1649 
0:1:24:770, 1584 
0:1:24:786, 1524 
0:1:24:802, 1468 
0:1:24:818, 1438 
0:1:24:834, 1417 
0:1:24:849, 1388 
0:1:24:865, 1359 
0:1:24:881, 1330 
0:1:24:897, 1303 
0:1:24:913, 1287 
0:1:24:929, 1266 
0:1:24:945, 1246 
0:1:24:961, 1222 
0:1:24:977, 1197 
0:1:24:992, 1195 
0:1:25:7, 1225 
0:1:25:23, 1419 
0:1:25:39, 1717 
0:1:25:54, 2114 
0:1:25:70, 2435 
0:1:25:86, 2823 
0:1:25:102, 3213 
0:1:25:118, 3256 
0:1:25:134, 3357 
0:1:25:150, 3365 
0:1:25:166, 3316 
0:1:25:181, 3250 
0:1:25:197, 3140 
0:1:25:214, 3054 
0:1:25:229, 2933 
0:1:25:244, 2834 
0:1:25:260, 2729 
0:1:25:275, 2629 
0:1:25:291, 2479 
0:1:25:306, 2403 
0:1:25:321, 2364 
0:1:25:337, 2314 
0:1:25:353, 2304 
0:1:25:368, 2303 
0:1:25:384, 2295 
0:1:25:400, 2266 
0:1:25:416, 2226 
0:1:25:431, 2156 
0:1:25:447, 2073 
0:1:25:463, 1985 
0:1:25:478, 1930 
0:1:25:493, 1874 
0:1:25:508, 1770 
0:1:25:523, 1690 
0:1:25:539, 1613 
0:1:25:555, 1538 
0:1:25:570, 1489 
0:1:25:585, 1442 
0:1:25:601, 1415 
0:1:25:617, 1373 
0:1:25:633, 1343 
0:1:25:649, 1317 
0:1:25:665, 1291 
0:1:25:680, 1276 
0:1:25:695, 1259 
0:1:25:710, 1226 
0:1:25:725, 1206 
0:1:25:741, 1177 
0:1:25:757, 1144 
0:1:25:772, 1144 
0:1:25:787, 1222 
0:1:25:802, 1438 
0:1:25:817, 1787 
0:1:25:833, 2300 
0:1:25:849, 2686 
0:1:25:864, 3016 
0:1:25:880, 3211 
0:1:25:896, 3242 
0:1:25:912, 3194 
0:1:25:927, 3065 
0:1:25:942, 2932 
0:1:25:958, 2784 
0:1:25:974, 2784 
0:1:25:990, 2642 
0:1:26:6, 2500 
0:1:26:21, 2366 
0:1:26:36, 2257 
0:1:26:51, 2174 
0:1:26:66, 2134 
0:1:26:82, 2138 
0:1:26:98, 2168 
0:1:26:113, 2185 
0:1:26:128, 2192 
0:1:26:144, 2185 
0:1:26:160, 2171 
0:1:26:175, 2124 
0:1:26:191, 2043 
0:1:26:207, 1962 
0:1:26:223, 1887 
0:1:26:239, 1814 
0:1:26:255, 1734 
0:1:26:271, 1649 
0:1:26:287, 1578 
0:1:26:303, 1492 
0:1:26:318, 1440 
0:1:26:334, 1378 
0:1:26:349, 1337 
0:1:26:365, 1297 
0:1:26:381, 1273 
0:1:26:396, 1255 
0:1:26:411, 1233 
0:1:26:426, 1213 
0:1:26:441, 1189 
0:1:26:457, 1183 
0:1:26:473, 1180 
0:1:26:488, 1163 
0:1:26:504, 1165 
0:1:26:519, 1238 
0:1:26:534, 1434 
0:1:26:550, 1765 
0:1:26:565, 2159 
0:1:26:581, 2627 
0:1:26:597, 2925 
0:1:26:612, 3072 
0:1:26:627, 3105 
0:1:26:642, 3080 
0:1:26:658, 2994 
0:1:26:674, 2826 
0:1:26:689, 2703 
0:1:26:705, 2529 
0:1:26:721, 2355 
0:1:26:737, 2272 
0:1:26:752, 2154 
0:1:26:768, 2037 
0:1:26:784, 1958 
0:1:26:799, 1942 
0:1:26:815, 1982 
0:1:26:831, 2039 
0:1:26:847, 2091 
0:1:26:862, 2129 
0:1:26:877, 2133 
0:1:26:892, 2109 
0:1:26:908, 2059 
0:1:26:924, 1977 
0:1:26:939, 1914 
0:1:26:955, 1854 
0:1:26:971, 1778 
0:1:26:987, 1681 
0:1:27:2, 1612 
0:1:27:17, 1544 
0:1:27:33, 1516 
0:1:27:49, 1465 
0:1:27:64, 1421 
0:1:27:80, 1382 
0:1:27:95, 1345 
0:1:27:110, 1315 
0:1:27:126, 1305 
0:1:27:142, 1293 
0:1:27:158, 1270 
0:1:27:173, 1257 
0:1:27:189, 1239 
0:1:27:205, 1233 
0:1:27:221, 1276 
0:1:27:237, 1425 
0:1:27:252, 1695 
0:1:27:267, 2044 
0:1:27:283, 2462 
0:1:27:298, 2726 
0:1:27:313, 2910 
0:1:27:328, 2955 
0:1:27:343, 2929 
0:1:27:359, 2826 
0:1:27:375, 2637 
0:1:27:391, 2468 
0:1:27:407, 2280 
0:1:27:423, 2059 
0:1:27:439, 1905 
0:1:27:455, 1792 
0:1:27:471, 1734 
0:1:27:487, 1734 
0:1:27:502, 1791 
0:1:27:518, 1869 
0:1:27:533, 1941 
0:1:27:548, 1992 
0:1:27:563, 2030 
0:1:27:578, 2054 
0:1:27:593, 2042 
0:1:27:608, 1972 
0:1:27:623, 1926 
0:1:27:639, 1836 
0:1:27:655, 1774 
0:1:27:670, 1703 
0:1:27:686, 1642 
0:1:27:702, 1575 
0:1:27:717, 1510 
0:1:27:733, 1471 
0:1:27:748, 1434 
0:1:27:763, 1404 
0:1:27:779, 1364 
0:1:27:794, 1327 
0:1:27:809, 1296 
0:1:27:825, 1254 
0:1:27:841, 1248 
0:1:27:857, 1370 
0:1:27:872, 1599 
0:1:27:888, 1942 
0:1:27:904, 2330 
0:1:27:920, 2744 
0:1:27:936, 2867 
0:1:27:952, 3072 
0:1:27:968, 3096 
0:1:27:984, 3062 
0:1:27:999, 2957 
0:1:28:14, 2813 
0:1:28:29, 2650 
0:1:28:44, 2508 
0:1:28:60, 2364 
0:1:28:76, 2140 
0:1:28:92, 1994 
0:1:28:108, 1889 
0:1:28:124, 1834 
0:1:28:140, 1858 
0:1:28:156, 1919 
0:1:28:171, 1973 
0:1:28:187, 2051 
0:1:28:203, 2102 
0:1:28:219, 2120 
0:1:28:234, 2114 
0:1:28:250, 2054 
0:1:28:266, 2000 
0:1:28:281, 1930 
0:1:28:297, 1818 
0:1:28:313, 1738 
0:1:28:329, 1655 
0:1:28:345, 1615 
0:1:28:360, 1562 
0:1:28:376, 1530 
0:1:28:392, 1480 
0:1:28:408, 1429 
0:1:28:424, 1359 
0:1:28:439, 1317 
0:1:28:454, 1293 
0:1:28:470, 1271 
0:1:28:486, 1335 
0:1:28:501, 1526 
0:1:28:516, 1856 
0:1:28:531, 2395 
0:1:28:547, 2813 
0:1:28:562, 3151 
0:1:28:578, 3405 
0:1:28:593, 3478 
0:1:28:608, 3441 
0:1:28:623, 3323 
0:1:28:639, 3165 
0:1:28:654, 2991 
0:1:28:670, 2803 
0:1:28:686, 2566 
0:1:28:702, 2399 
0:1:28:718, 2252 
0:1:28:733, 2157 
0:1:28:748, 2112 
0:1:28:763, 2107 
0:1:28:778, 2136 
0:1:28:794, 2169 
0:1:28:810, 2221 
0:1:28:826, 2255 
0:1:28:842, 2249 
0:1:28:857, 2210 
0:1:28:873, 2153 
0:1:28:889, 2079 
0:1:28:904, 2003 
0:1:28:919, 1923 
0:1:28:935, 1843 
0:1:28:950, 1775 
0:1:28:965, 1705 
0:1:28:981, 1629 
0:1:28:997, 1552 
0:1:29:13, 1482 
0:1:29:29, 1414 
0:1:29:45, 1365 
0:1:29:61, 1339 
0:1:29:77, 1316 
0:1:29:93, 1308 
0:1:29:109, 1417 
0:1:29:125, 1594 
0:1:29:140, 1759 
0:1:29:155, 2174 
0:1:29:171, 2651 
0:1:29:187, 3072 
0:1:29:202, 3315 
0:1:29:217, 3566 
0:1:29:233, 3636 
0:1:29:249, 3610 
0:1:29:264, 3487 
0:1:29:279, 3333 
0:1:29:294, 3161 
0:1:29:310, 2985 
0:1:29:326, 2766 
0:1:29:342, 2604 
0:1:29:358, 2426 
0:1:29:374, 2332 
0:1:29:390, 2266 
0:1:29:405, 2264 
0:1:29:421, 2288 
0:1:29:436, 2310 
0:1:29:451, 2313 
0:1:29:466, 2298 
0:1:29:482, 2240 
0:1:29:498, 2177 
0:1:29:514, 2120 
0:1:29:530, 2002 
0:1:29:546, 1907 
0:1:29:562, 1834 
0:1:29:578, 1746 
0:1:29:593, 1672 
0:1:29:608, 1619 
0:1:29:623, 1551 
0:1:29:638, 1499 
0:1:29:653, 1451 
0:1:29:668, 1406 
0:1:29:683, 1381 
0:1:29:698, 1346 
0:1:29:714, 1303 
0:1:29:730, 1257 
0:1:29:746, 1231 
0:1:29:762, 1248 
0:1:29:778, 1423 
0:1:29:794, 1714 
0:1:29:810, 2231 
0:1:29:826, 2558 
0:1:29:841, 2756 
0:1:29:856, 3080 
0:1:29:871, 3321 
0:1:29:887, 3393 
0:1:29:902, 3373 
0:1:29:917, 3298 
0:1:29:932, 3175 
0:1:29:948, 3048 
0:1:29:963, 2930 
0:1:29:979, 2787 
0:1:29:994, 2636 
0:1:30:10, 2495 
0:1:30:26, 2364 
0:1:30:42, 2272 
0:1:30:57, 2231 
0:1:30:73, 2208 
0:1:30:89, 2203 
0:1:30:105, 2193 
0:1:30:121, 2167 
0:1:30:136, 2139 
0:1:30:151, 2087 
0:1:30:167, 2018 
0:1:30:183, 1945 
0:1:30:199, 1852 
0:1:30:215, 1754 
0:1:30:231, 1686 
0:1:30:247, 1618 
0:1:30:262, 1554 
0:1:30:278, 1479 
0:1:30:293, 1423 
0:1:30:308, 1358 
0:1:30:324, 1311 
0:1:30:340, 1267 
0:1:30:356, 1233 
0:1:30:372, 1212 
0:1:30:387, 1170 
0:1:30:402, 1141 
0:1:30:418, 1108 
0:1:30:434, 1079 
0:1:30:450, 1068 
0:1:30:465, 1046 
0:1:30:481, 1056 
0:1:30:497, 1151 
0:1:30:513, 1461 
0:1:30:529, 1847 
0:1:30:545, 2166 
0:1:30:561, 2647 
0:1:30:577, 2953 
0:1:30:593, 3094 
0:1:30:608, 3137 
0:1:30:623, 3081 
0:1:30:638, 2970 
0:1:30:654, 2872 
0:1:30:670, 2770 
0:1:30:685, 2644 
0:1:30:701, 2518 
0:1:30:717, 2411 
0:1:30:733, 2310 
0:1:30:749, 2215 
0:1:30:764, 2119 
0:1:30:780, 2081 
0:1:30:796, 2072 
0:1:30:812, 2076 
0:1:30:827, 2068 
0:1:30:842, 2062 
0:1:30:858, 2043 
0:1:30:873, 2009 
0:1:30:889, 1964 
0:1:30:905, 1890 
0:1:30:921, 1785 
0:1:30:937, 1738 
0:1:30:953, 1671 
0:1:30:969, 1587 
0:1:30:985, 1526 
0:1:31:1, 1451 
0:1:31:17, 1404 
0:1:31:33, 1355 
0:1:31:48, 1303 
0:1:31:64, 1279 
0:1:31:79, 1254 
0:1:31:94, 1242 
0:1:31:109, 1221 
0:1:31:125, 1204 
0:1:31:140, 1188 
0:1:31:156, 1170 
0:1:31:171, 1158 
0:1:31:187, 1154 
0:1:31:202, 1144 
0:1:31:218, 1126 
0:1:31:234, 1124 
0:1:31:250, 1154 
0:1:31:266, 1242 
0:1:31:282, 1478 
0:1:31:298, 1828 
0:1:31:313, 2207 
0:1:31:328, 2547 
0:1:31:343, 2872 
0:1:31:359, 2983 
0:1:31:374, 2972 
0:1:31:390, 2875 
0:1:31:406, 2767 
0:1:31:422, 2626 
0:1:31:438, 2515 
0:1:31:453, 2431 
0:1:31:469, 2333 
0:1:31:485, 2239 
0:1:31:501, 2173 
0:1:31:516, 2123 
0:1:31:532, 2081 
0:1:31:547, 2065 
0:1:31:562, 2058 
0:1:31:577, 2068 
0:1:31:592, 2051 
0:1:31:608, 2021 
0:1:31:624, 1962 
0:1:31:640, 1895 
0:1:31:656, 1836 
0:1:31:671, 1783 
0:1:31:687, 1720 
0:1:31:702, 1660 
0:1:31:718, 1595 
0:1:31:734, 1545 
0:1:31:750, 1475 
0:1:31:767, 1423 
0:1:31:782, 1384 
0:1:31:797, 1355 
0:1:31:813, 1327 
0:1:31:829, 1322 
0:1:31:845, 1303 
0:1:31:861, 1280 
0:1:31:876, 1258 
0:1:31:892, 1243 
0:1:31:908, 1233 
0:1:31:923, 1211 
0:1:31:939, 1185 
0:1:31:955, 1193 
0:1:31:970, 1242 
0:1:31:985, 1346 
0:1:32:1, 1595 
0:1:32:16, 1932 
0:1:32:31, 2274 
0:1:32:46, 2617 
0:1:32:62, 2825 
0:1:32:77, 2885 
0:1:32:92, 2866 
0:1:32:108, 2827 
0:1:32:124, 2708 
0:1:32:140, 2562 
0:1:32:155, 2413 
0:1:32:170, 2263 
0:1:32:186, 2151 
0:1:32:202, 2059 
0:1:32:217, 1982 
0:1:32:232, 1946 
0:1:32:247, 1927 
0:1:32:262, 1929 
0:1:32:278, 1961 
0:1:32:294, 1998 
0:1:32:310, 2016 
0:1:32:326, 2028 
0:1:32:342, 2009 
0:1:32:358, 1959 
0:1:32:373, 1895 
0:1:32:389, 1805 
0:1:32:405, 1743 
0:1:32:421, 1681 
0:1:32:437, 1626 
0:1:32:452, 1577 
0:1:32:467, 1521 
0:1:32:482, 1474 
0:1:32:497, 1441 
0:1:32:512, 1418 
0:1:32:528, 1397 
0:1:32:544, 1365 
0:1:32:560, 1332 
0:1:32:576, 1320 
0:1:32:592, 1289 
0:1:32:608, 1264 
0:1:32:624, 1260 
0:1:32:640, 1248 
0:1:32:655, 1237 
0:1:32:671, 1228 
0:1:32:687, 1228 
0:1:32:703, 1224 
0:1:32:718, 1212 
0:1:32:733, 1227 
0:1:32:749, 1332 
0:1:32:764, 1634 
0:1:32:780, 1963 
0:1:32:795, 2299 
0:1:32:811, 2585 
0:1:32:827, 2822 
0:1:32:842, 2842 
0:1:32:858, 2759 
0:1:32:874, 2636 
0:1:32:890, 2451 
0:1:32:905, 2314 
0:1:32:920, 2247 
0:1:32:935, 2111 
0:1:32:950, 1997 
0:1:32:965, 1913 
0:1:32:981, 1855 
0:1:32:997, 1865 
0:1:33:14, 1903 
0:1:33:29, 1948 
0:1:33:44, 1999 
0:1:33:60, 2026 
0:1:33:75, 2026 
0:1:33:91, 2024 
0:1:33:107, 2005 
0:1:33:122, 1970 
0:1:33:137, 1930 
0:1:33:153, 1890 
0:1:33:169, 1820 
0:1:33:184, 1745 
0:1:33:199, 1682 
0:1:33:215, 1616 
0:1:33:230, 1568 
0:1:33:246, 1518 
0:1:33:262, 1452 
0:1:33:278, 1414 
0:1:33:294, 1391 
0:1:33:310, 1367 
0:1:33:326, 1360 
0:1:33:342, 1344 
0:1:33:358, 1331 
0:1:33:374, 1324 
0:1:33:389, 1307 
0:1:33:404, 1296 
0:1:33:419, 1293 
0:1:33:434, 1342 
0:1:33:449, 1493 
0:1:33:464, 1743 
0:1:33:480, 2130 
0:1:33:495, 2407 
0:1:33:511, 2620 
0:1:33:527, 2709 
0:1:33:543, 2693 
0:1:33:559, 2595 
0:1:33:574, 2460 
0:1:33:589, 2311 
0:1:33:605, 2141 
0:1:33:621, 1949 
0:1:33:637, 1814 
0:1:33:652, 1719 
0:1:33:668, 1679 
0:1:33:684, 1690 
0:1:33:700, 1753 
0:1:33:715, 1825 
0:1:33:730, 1900 
0:1:33:745, 1968 
0:1:33:760, 1998 
0:1:33:776, 2004 
0:1:33:792, 1979 
0:1:33:808, 1930 
0:1:33:824, 1853 
0:1:33:840, 1785 
0:1:33:855, 1702 
0:1:33:870, 1639 
0:1:33:885, 1565 
0:1:33:900, 1526 
0:1:33:916, 1489 
0:1:33:931, 1449 
0:1:33:946, 1423 
0:1:33:962, 1403 
0:1:33:978, 1385 
0:1:33:994, 1372 
0:1:34:10, 1351 
0:1:34:26, 1340 
0:1:34:41, 1327 
0:1:34:57, 1369 
0:1:34:72, 1513 
0:1:34:88, 1760 
0:1:34:104, 2169 
0:1:34:119, 2473 
0:1:34:134, 2690 
0:1:34:150, 2809 
0:1:34:166, 2834 
0:1:34:181, 2817 
0:1:34:197, 2735 
0:1:34:213, 2637 
0:1:34:229, 2440 
0:1:34:245, 2270 
0:1:34:261, 2085 
0:1:34:276, 1919 
0:1:34:292, 1797 
0:1:34:308, 1714 
0:1:34:324, 1724 
0:1:34:340, 1779 
0:1:34:355, 1853 
0:1:34:371, 1914 
0:1:34:387, 1991 
0:1:34:403, 2022 
0:1:34:419, 2047 
0:1:34:435, 2029 
0:1:34:451, 1993 
0:1:34:466, 1945 
0:1:34:482, 1886 
0:1:34:498, 1808 
0:1:34:514, 1739 
0:1:34:530, 1659 
0:1:34:546, 1595 
0:1:34:562, 1539 
0:1:34:577, 1509 
0:1:34:592, 1471 
0:1:34:607, 1446 
0:1:34:622, 1425 
0:1:34:638, 1397 
0:1:34:653, 1387 
0:1:34:669, 1419 
0:1:34:685, 1543 
0:1:34:700, 1595 
0:1:34:716, 1887 
0:1:34:732, 2253 
0:1:34:748, 2695 
0:1:34:763, 2952 
0:1:34:778, 3126 
0:1:34:794, 3155 
0:1:34:809, 3110 
0:1:34:824, 3003 
0:1:34:839, 2845 
0:1:34:854, 2669 
0:1:34:870, 2490 
0:1:34:886, 2268 
0:1:34:902, 2118 
0:1:34:917, 2006 
0:1:34:933, 1946 
0:1:34:949, 1937 
0:1:34:964, 1985 
0:1:34:980, 2069 
0:1:34:996, 2111 
0:1:35:12, 2165 
0:1:35:28, 2234 
0:1:35:44, 2251 
0:1:35:59, 2222 
0:1:35:75, 2187 
0:1:35:91, 2132 
0:1:35:107, 2066 
0:1:35:122, 2032 
0:1:35:137, 1978 
0:1:35:152, 1903 
0:1:35:167, 1825 
0:1:35:183, 1749 
0:1:35:199, 1715 
0:1:35:215, 1656 
0:1:35:230, 1624 
0:1:35:246, 1577 
0:1:35:262, 1520 
0:1:35:277, 1482 
0:1:35:292, 1456 
0:1:35:307, 1499 
0:1:35:322, 1677 
0:1:35:338, 2089 
0:1:35:354, 2496 
0:1:35:370, 2875 
0:1:35:386, 3260 
0:1:35:402, 3389 
0:1:35:417, 3434 
0:1:35:432, 3385 
0:1:35:448, 3280 
0:1:35:464, 3133 
0:1:35:480, 2936 
0:1:35:496, 2773 
0:1:35:512, 2559 
0:1:35:527, 2401 
0:1:35:542, 2300 
0:1:35:558, 2241 
0:1:35:573, 2245 
0:1:35:589, 2286 
0:1:35:605, 2318 
0:1:35:621, 2367 
0:1:35:637, 2385 
0:1:35:653, 2370 
0:1:35:669, 2336 
0:1:35:684, 2288 
0:1:35:700, 2239 
0:1:35:715, 2184 
0:1:35:731, 2100 
0:1:35:746, 2018 
0:1:35:761, 1953 
0:1:35:777, 1881 
0:1:35:792, 1804 
0:1:35:807, 1752 
0:1:35:823, 1668 
0:1:35:838, 1612 
0:1:35:854, 1565 
0:1:35:869, 1528 
0:1:35:885, 1487 
0:1:35:901, 1459 
0:1:35:917, 1497 
0:1:35:933, 1721 
0:1:35:949, 2046 
0:1:35:965, 2457 
0:1:35:981, 2850 
0:1:35:996, 3258 
0:1:36:10, 3385 
0:1:36:25, 3433 
0:1:36:40, 3436 
0:1:36:55, 3341 
0:1:36:71, 3221 
0:1:36:87, 3098 
0:1:36:103, 2913 
0:1:36:118, 2765 
0:1:36:134, 2622 
0:1:36:149, 2487 
0:1:36:165, 2380 
0:1:36:181, 2302 
0:1:36:197, 2273 
0:1:36:213, 2283 
0:1:36:228, 2294 
0:1:36:243, 2305 
0:1:36:259, 2319 
0:1:36:274, 2324 
0:1:36:290, 2289 
0:1:36:306, 2237 
0:1:36:322, 2145 
0:1:36:337, 2052 
0:1:36:353, 1958 
0:1:36:369, 1856 
0:1:36:385, 1768 
0:1:36:401, 1683 
0:1:36:417, 1621 
0:1:36:433, 1578 
0:1:36:448, 1536 
0:1:36:463, 1491 
0:1:36:478, 1460 
0:1:36:494, 1421 
0:1:36:510, 1379 
0:1:36:525, 1355 
0:1:36:540, 1330 
0:1:36:556, 1335 
0:1:36:571, 1420 
0:1:36:587, 1639 
0:1:36:603, 2059 
0:1:36:619, 2417 
0:1:36:635, 2733 
0:1:36:651, 2936 
0:1:36:667, 3100 
0:1:36:683, 3119 
0:1:36:698, 3054 
0:1:36:713, 2959 
0:1:36:728, 2884 
0:1:36:744, 2775 
0:1:36:760, 2672 
0:1:36:776, 2564 
0:1:36:792, 2476 
0:1:36:808, 2365 
0:1:36:823, 2248 
0:1:36:839, 2184 
0:1:36:854, 2120 
0:1:36:869, 2098 
0:1:36:885, 2087 
0:1:36:901, 2094 
0:1:36:916, 2087 
0:1:36:931, 2046 
0:1:36:946, 1989 
0:1:36:961, 1939 
0:1:36:977, 1866 
0:1:36:993, 1796 
0:1:37:9, 1744 
0:1:37:25, 1658 
0:1:37:41, 1585 
0:1:37:57, 1517 
0:1:37:73, 1442 
0:1:37:89, 1389 
0:1:37:104, 1355 
0:1:37:119, 1321 
0:1:37:135, 1284 
0:1:37:151, 1256 
0:1:37:166, 1215 
0:1:37:181, 1183 
0:1:37:197, 1151 
0:1:37:213, 1127 
0:1:37:229, 1101 
0:1:37:245, 1102 
0:1:37:260, 1142 
0:1:37:276, 1276 
0:1:37:292, 1618 
0:1:37:307, 1618 
0:1:37:323, 1784 
0:1:37:339, 2125 
0:1:37:355, 2500 
0:1:37:371, 2718 
0:1:37:387, 2786 
0:1:37:402, 2769 
0:1:37:417, 2697 
0:1:37:432, 2606 
0:1:37:448, 2541 
0:1:37:464, 2469 
0:1:37:479, 2364 
0:1:37:495, 2286 
0:1:37:511, 2181 
0:1:37:527, 2102 
0:1:37:543, 2029 
0:1:37:559, 1989 
0:1:37:575, 1961 
0:1:37:591, 1947 
0:1:37:607, 1941 
0:1:37:623, 1939 
0:1:37:638, 1908 
0:1:37:653, 1882 
0:1:37:668, 1820 
0:1:37:684, 1754 
0:1:37:700, 1706 
0:1:37:716, 1631 
0:1:37:732, 1563 
0:1:37:748, 1507 
0:1:37:765, 1427 
0:1:37:781, 1382 
0:1:37:797, 1340 
0:1:37:813, 1306 
0:1:37:829, 1265 
0:1:37:845, 1237 
0:1:37:861, 1222 
0:1:37:876, 1202 
0:1:37:891, 1189 
0:1:37:907, 1182 
0:1:37:923, 1153 
0:1:37:939, 1127 
0:1:37:955, 1117 
0:1:37:971, 1136 
0:1:37:987, 1223 
0:1:38:3, 1411 
0:1:38:18, 1777 
0:1:38:33, 2101 
0:1:38:49, 2372 
0:1:38:65, 2546 
0:1:38:80, 2664 
0:1:38:96, 2656 
0:1:38:111, 2604 
0:1:38:126, 2516 
0:1:38:142, 2397 
0:1:38:158, 2333 
0:1:38:174, 2247 
0:1:38:190, 2155 
0:1:38:206, 2094 
0:1:38:222, 2025 
0:1:38:238, 1995 
0:1:38:253, 1967 
0:1:38:269, 1968 
0:1:38:285, 1986 
0:1:38:301, 1996 
0:1:38:317, 2002 
0:1:38:333, 1997 
0:1:38:348, 1960 
0:1:38:363, 1920 
0:1:38:379, 1841 
0:1:38:395, 1785 
0:1:38:411, 1721 
0:1:38:427, 1657 
0:1:38:443, 1594 
0:1:38:458, 1541 
0:1:38:473, 1505 
0:1:38:489, 1470 
0:1:38:504, 1433 
0:1:38:520, 1388 
0:1:38:536, 1354 
0:1:38:552, 1320 
0:1:38:568, 1292 
0:1:38:583, 1270 
0:1:38:598, 1252 
0:1:38:613, 1235 
0:1:38:628, 1217 
0:1:38:644, 1193 
0:1:38:660, 1176 
0:1:38:676, 1172 
0:1:38:692, 1230 
0:1:38:707, 1326 
0:1:38:723, 1606 
0:1:38:739, 1898 
0:1:38:755, 2184 
0:1:38:771, 2423 
0:1:38:787, 2580 
0:1:38:803, 2621 
0:1:38:818, 2594 
0:1:38:833, 2510 
0:1:38:848, 2411 
0:1:38:864, 2308 
0:1:38:880, 2181 
0:1:38:896, 2111 
0:1:38:911, 2039 
0:1:38:927, 1958 
0:1:38:943, 1908 
0:1:38:958, 1883 
0:1:38:974, 1878 
0:1:38:990, 1878 
0:1:39:6, 1878 
0:1:39:22, 1891 
0:1:39:38, 1921 
0:1:39:53, 1944 
0:1:39:68, 1951 
0:1:39:83, 1928 
0:1:39:99, 1896 
0:1:39:115, 1854 
0:1:39:131, 1782 
0:1:39:147, 1717 
0:1:39:163, 1655 
0:1:39:179, 1596 
0:1:39:195, 1555 
0:1:39:211, 1523 
0:1:39:227, 1481 
0:1:39:243, 1453 
0:1:39:259, 1427 
0:1:39:274, 1390 
0:1:39:289, 1359 
0:1:39:304, 1341 
0:1:39:319, 1325 
0:1:39:334, 1307 
0:1:39:349, 1299 
0:1:39:365, 1277 
0:1:39:382, 1254 
0:1:39:398, 1232 
0:1:39:414, 1222 
0:1:39:430, 1265 
0:1:39:446, 1394 
0:1:39:462, 1619 
0:1:39:477, 1903 
0:1:39:493, 2245 
0:1:39:509, 2361 
0:1:39:524, 2554 
0:1:39:539, 2624 
0:1:39:554, 2604 
0:1:39:569, 2494 
0:1:39:585, 2366 
0:1:39:601, 2208 
0:1:39:617, 2081 
0:1:39:633, 1970 
0:1:39:649, 1869 
0:1:39:665, 1813 
0:1:39:682, 1803 
0:1:39:698, 1834 
0:1:39:714, 1890 
0:1:39:729, 1930 
0:1:39:745, 1966 
0:1:39:761, 1985 
0:1:39:776, 1966 
0:1:39:791, 1926 
0:1:39:806, 1877 
0:1:39:822, 1814 
0:1:39:838, 1743 
0:1:39:853, 1688 
0:1:39:868, 1631 
0:1:39:884, 1583 
0:1:39:900, 1561 
0:1:39:915, 1525 
0:1:39:931, 1500 
0:1:39:946, 1467 
0:1:39:962, 1434 
0:1:39:976, 1408 
0:1:39:991, 1383 
0:1:40:8, 1357 
0:1:40:23, 1352 
0:1:40:40, 1338 
0:1:40:56, 1336 
0:1:40:71, 1366 
0:1:40:86, 1464 
0:1:40:101, 1597 
0:1:40:116, 1834 
0:1:40:131, 2101 
0:1:40:146, 2349 
0:1:40:162, 2483 
0:1:40:177, 2594 
0:1:40:193, 2610 
0:1:40:209, 2591 
0:1:40:225, 2507 
0:1:40:241, 2422 
0:1:40:256, 2319 
0:1:40:272, 2165 
0:1:40:288, 2051 
0:1:40:304, 1914 
0:1:40:319, 1808 
0:1:40:334, 1755 
0:1:40:349, 1730 
0:1:40:364, 1732 
0:1:40:379, 1756 
0:1:40:395, 1814 
0:1:40:411, 1877 
0:1:40:427, 1919 
0:1:40:443, 1966 
0:1:40:458, 1981 
0:1:40:474, 1972 
0:1:40:490, 1940 
0:1:40:506, 1894 
0:1:40:522, 1837 
0:1:40:538, 1764 
0:1:40:553, 1718 
0:1:40:568, 1670 
0:1:40:584, 1624 
0:1:40:600, 1576 
0:1:40:616, 1535 
0:1:40:632, 1502 
0:1:40:648, 1473 
0:1:40:664, 1455 
0:1:40:680, 1438 
0:1:40:696, 1413 
0:1:40:711, 1397 
0:1:40:726, 1414 
0:1:40:742, 1500 
0:1:40:758, 1697 
0:1:40:773, 1988 
0:1:40:788, 2297 
0:1:40:803, 2577 
0:1:40:818, 2813 
0:1:40:834, 2886 
0:1:40:850, 2853 
0:1:40:866, 2724 
0:1:40:883, 2591 
0:1:40:898, 2396 
0:1:40:913, 2255 
0:1:40:929, 2124 
0:1:40:944, 2006 
0:1:40:959, 1934 
0:1:40:975, 1903 
0:1:40:990, 1913 
0:1:41:6, 1960 
0:1:41:21, 2031 
0:1:41:36, 2081 
0:1:41:52, 2107 
0:1:41:68, 2103 
0:1:41:84, 2073 
0:1:41:100, 2006 
0:1:41:116, 1949 
0:1:41:131, 1885 
0:1:41:146, 1827 
0:1:41:161, 1771 
0:1:41:177, 1708 
0:1:41:192, 1665 
0:1:41:208, 1623 
0:1:41:224, 1566 
0:1:41:240, 1547 
0:1:41:255, 1520 
0:1:41:270, 1486 
0:1:41:286, 1458 
0:1:41:302, 1425 
0:1:41:318, 1441 
0:1:41:333, 1551 
0:1:41:349, 1787 
0:1:41:365, 2208 
0:1:41:381, 2571 
0:1:41:396, 2812 
0:1:41:412, 3024 
0:1:41:428, 3191 
0:1:41:443, 3215 
0:1:41:459, 3209 
0:1:41:474, 3166 
0:1:41:490, 3064 
0:1:41:505, 2926 
0:1:41:521, 2778 
0:1:41:537, 2592 
0:1:41:553, 2418 
0:1:41:569, 2322 
0:1:41:585, 2194 
0:1:41:601, 2157 
0:1:41:617, 2150 
0:1:41:632, 2180 
0:1:41:648, 2227 
0:1:41:664, 2273 
0:1:41:679, 2316 
0:1:41:695, 2304 
0:1:41:710, 2251 
0:1:41:725, 2183 
0:1:41:740, 2099 
0:1:41:756, 2018 
0:1:41:772, 1963 
0:1:41:788, 1885 
0:1:41:804, 1825 
0:1:41:819, 1767 
0:1:41:835, 1706 
0:1:41:851, 1637 
0:1:41:867, 1584 
0:1:41:884, 1528 
0:1:41:899, 1487 
0:1:41:914, 1453 
0:1:41:930, 1439 
0:1:41:946, 1443 
0:1:41:961, 1496 
0:1:41:976, 1753 
0:1:41:992, 2104 
0:1:42:7, 2411 
0:1:42:22, 2724 
0:1:42:37, 3004 
0:1:42:53, 3337 
0:1:42:69, 3499 
0:1:42:85, 3526 
0:1:42:101, 3478 
0:1:42:116, 3375 
0:1:42:132, 3236 
0:1:42:147, 3056 
0:1:42:162, 2947 
0:1:42:178, 2771 
0:1:42:193, 2635 
0:1:42:208, 2539 
0:1:42:223, 2457 
0:1:42:238, 2389 
0:1:42:254, 2334 
0:1:42:270, 2314 
0:1:42:286, 2328 
0:1:42:301, 2337 
0:1:42:316, 2346 
0:1:42:332, 2327 
0:1:42:348, 2251 
0:1:42:364, 2192 
0:1:42:379, 2108 
0:1:42:395, 2032 
0:1:42:411, 1978 
0:1:42:426, 1919 
0:1:42:441, 1832 
0:1:42:456, 1738 
0:1:42:472, 1656 
0:1:42:488, 1578 
0:1:42:504, 1526 
0:1:42:520, 1465 
0:1:42:536, 1413 
0:1:42:551, 1379 
0:1:42:566, 1350 
0:1:42:581, 1332 
0:1:42:597, 1416 
0:1:42:613, 1628 
0:1:42:629, 1969 
0:1:42:644, 2263 
0:1:42:659, 2653 
0:1:42:675, 2906 
0:1:42:691, 3179 
0:1:42:707, 3304 
0:1:42:723, 3291 
0:1:42:739, 3212 
0:1:42:754, 3100 
0:1:42:769, 2963 
0:1:42:785, 2821 
0:1:42:801, 2657 
0:1:42:817, 2524 
0:1:42:832, 2408 
0:1:42:848, 2303 
0:1:42:864, 2232 
0:1:42:880, 2193 
0:1:42:895, 2178 
0:1:42:910, 2169 
0:1:42:925, 2155 
0:1:42:941, 2132 
0:1:42:956, 2117 
0:1:42:972, 2061 
0:1:42:988, 2009 
0:1:43:3, 1943 
0:1:43:18, 1861 
0:1:43:34, 1766 
0:1:43:50, 1688 
0:1:43:65, 1652 
0:1:43:81, 1599 
0:1:43:96, 1529 
0:1:43:111, 1466 
0:1:43:126, 1407 
0:1:43:141, 1355 
0:1:43:157, 1324 
0:1:43:172, 1294 
0:1:43:188, 1262 
0:1:43:204, 1235 
0:1:43:220, 1207 
0:1:43:236, 1178 
0:1:43:252, 1165 
0:1:43:268, 1154 
0:1:43:283, 1162 
0:1:43:299, 1256 
0:1:43:315, 1483 
0:1:43:331, 1934 
0:1:43:347, 2353 
0:1:43:362, 2716 
0:1:43:377, 3025 
0:1:43:393, 3185 
0:1:43:408, 3200 
0:1:43:423, 3123 
0:1:43:439, 2957 
0:1:43:455, 2809 
0:1:43:470, 2665 
0:1:43:486, 2561 
0:1:43:502, 2434 
0:1:43:517, 2335 
0:1:43:532, 2248 
0:1:43:548, 2165 
0:1:43:564, 2145 
0:1:43:580, 2122 
0:1:43:595, 2117 
0:1:43:610, 2133 
0:1:43:626, 2141 
0:1:43:642, 2131 
0:1:43:658, 2097 
0:1:43:674, 2034 
0:1:43:690, 1962 
0:1:43:706, 1899 
0:1:43:721, 1816 
0:1:43:737, 1741 
0:1:43:753, 1663 
0:1:43:768, 1572 
0:1:43:784, 1539 
0:1:43:800, 1479 
0:1:43:816, 1436 
0:1:43:831, 1394 
0:1:43:846, 1355 
0:1:43:861, 1326 
0:1:43:877, 1297 
0:1:43:893, 1269 
0:1:43:909, 1255 
0:1:43:925, 1244 
0:1:43:941, 1214 
0:1:43:957, 1202 
0:1:43:973, 1230 
0:1:43:989, 1368 
0:1:44:5, 1716 
0:1:44:21, 2066 
0:1:44:37, 2066 
0:1:44:53, 2420 
0:1:44:68, 2709 
0:1:44:84, 2951 
0:1:44:100, 2981 
0:1:44:115, 2940 
0:1:44:130, 2842 
0:1:44:146, 2721 
0:1:44:162, 2564 
0:1:44:178, 2349 
0:1:44:193, 2199 
0:1:44:208, 2100 
0:1:44:223, 1983 
0:1:44:238, 1905 
0:1:44:253, 1868 
0:1:44:269, 1884 
0:1:44:284, 1957 
0:1:44:299, 2008 
0:1:44:314, 2032 
0:1:44:330, 2051 
0:1:44:346, 2026 
0:1:44:362, 1981 
0:1:44:378, 1939 
0:1:44:394, 1884 
0:1:44:410, 1801 
0:1:44:426, 1717 
0:1:44:442, 1632 
0:1:44:457, 1572 
0:1:44:473, 1502 
0:1:44:488, 1459 
0:1:44:503, 1426 
0:1:44:518, 1404 
0:1:44:533, 1387 
0:1:44:548, 1373 
0:1:44:564, 1352 
0:1:44:579, 1319 
0:1:44:595, 1290 
0:1:44:610, 1269 
0:1:44:625, 1243 
0:1:44:640, 1236 
0:1:44:656, 1232 
0:1:44:672, 1231 
0:1:44:688, 1321 
0:1:44:703, 1531 
0:1:44:719, 1839 
0:1:44:735, 2109 
0:1:44:750, 2447 
0:1:44:765, 2762 
0:1:44:781, 2877 
0:1:44:797, 2902 
0:1:44:813, 2825 
0:1:44:829, 2706 
0:1:44:844, 2548 
0:1:44:859, 2361 
0:1:44:874, 2125 
0:1:44:890, 1957 
0:1:44:906, 1840 
0:1:44:922, 1777 
0:1:44:938, 1774 
0:1:44:953, 1810 
0:1:44:968, 1875 
0:1:44:984, 1959 
0:1:44:999, 2025 
0:1:45:14, 2054 
0:1:45:30, 2039 
0:1:45:45, 1992 
0:1:45:61, 1939 
0:1:45:77, 1861 
0:1:45:93, 1787 
0:1:45:109, 1724 
0:1:45:125, 1662 
0:1:45:141, 1597 
0:1:45:157, 1550 
0:1:45:173, 1489 
0:1:45:189, 1449 
0:1:45:205, 1431 
0:1:45:221, 1399 
0:1:45:236, 1382 
0:1:45:251, 1354 
0:1:45:267, 1323 
0:1:45:282, 1294 
0:1:45:298, 1310 
0:1:45:314, 1417 
0:1:45:330, 1708 
0:1:45:346, 1945 
0:1:45:362, 2284 
0:1:45:377, 2585 
0:1:45:393, 2812 
0:1:45:409, 2902 
0:1:45:425, 2893 
0:1:45:441, 2771 
0:1:45:457, 2625 
0:1:45:473, 2447 
0:1:45:488, 2210 
0:1:45:504, 2070 
0:1:45:520, 1902 
0:1:45:536, 1763 
0:1:45:552, 1723 
0:1:45:568, 1723 
0:1:45:583, 1782 
0:1:45:599, 1861 
0:1:45:615, 1939 
0:1:45:630, 1988 
0:1:45:646, 2024 
0:1:45:661, 2032 
0:1:45:677, 2005 
0:1:45:693, 1955 
0:1:45:708, 1903 
0:1:45:723, 1857 
0:1:45:738, 1806 
0:1:45:753, 1744 
0:1:45:770, 1688 
0:1:45:786, 1622 
0:1:45:802, 1562 
0:1:45:818, 1495 
0:1:45:833, 1468 
0:1:45:849, 1404 
0:1:45:865, 1360 
0:1:45:880, 1322 
0:1:45:896, 1303 
0:1:45:911, 1320 
0:1:45:926, 1429 
0:1:45:941, 1680 
0:1:45:956, 2037 
0:1:45:972, 2336 
0:1:45:988, 2723 
