Time, Data
0:0:0:0, 1478 
0:0:0:11, 1465 
0:0:0:27, 1422 
0:0:0:43, 1363 
0:0:0:60, 1348 
0:0:0:76, 1296 
0:0:0:92, 1267 
0:0:0:107, 1240 
0:0:0:122, 1210 
0:0:0:137, 1174 
0:0:0:153, 1162 
0:0:0:168, 1158 
0:0:0:183, 1154 
0:0:0:199, 1151 
0:0:0:215, 1183 
0:0:0:230, 1282 
0:0:0:246, 1569 
0:0:0:261, 1887 
0:0:0:278, 2247 
0:0:0:293, 2599 
0:0:0:309, 2906 
0:0:0:324, 3237 
0:0:0:339, 3371 
0:0:0:354, 3438 
0:0:0:369, 3417 
0:0:0:384, 3340 
0:0:0:400, 3242 
0:0:0:416, 3147 
0:0:0:432, 3046 
0:0:0:448, 2932 
0:0:0:464, 2783 
0:0:0:480, 2659 
0:0:0:496, 2562 
0:0:0:512, 2438 
0:0:0:528, 2350 
0:0:0:544, 2277 
0:0:0:560, 2258 
0:0:0:575, 2257 
0:0:0:590, 2271 
0:0:0:605, 2279 
0:0:0:621, 2288 
0:0:0:637, 2289 
0:0:0:652, 2275 
0:0:0:667, 2247 
0:0:0:682, 2205 
0:0:0:698, 2164 
0:0:0:714, 2105 
0:0:0:730, 2050 
0:0:0:746, 1988 
0:0:0:762, 1927 
0:0:0:778, 1861 
0:0:0:793, 1784 
0:0:0:808, 1705 
0:0:0:823, 1650 
0:0:0:839, 1582 
0:0:0:854, 1533 
0:0:0:869, 1468 
0:0:0:884, 1398 
0:0:0:900, 1376 
0:0:0:916, 1337 
0:0:0:932, 1302 
0:0:0:948, 1272 
0:0:0:964, 1241 
0:0:0:980, 1214 
0:0:0:996, 1202 
0:0:1:11, 1232 
0:0:1:26, 1323 
0:0:1:41, 1373 
0:0:1:56, 1506 
0:0:1:71, 1785 
0:0:1:87, 2230 
0:0:1:102, 2450 
0:0:1:117, 2842 
0:0:1:132, 3071 
0:0:1:148, 3291 
0:0:1:164, 3362 
0:0:1:179, 3366 
0:0:1:195, 3302 
0:0:1:211, 3219 
0:0:1:227, 3139 
0:0:1:242, 3049 
0:0:1:258, 2936 
0:0:1:274, 2864 
0:0:1:289, 2725 
0:0:1:304, 2640 
0:0:1:319, 2561 
0:0:1:335, 2447 
0:0:1:351, 2387 
0:0:1:366, 2356 
0:0:1:382, 2331 
0:0:1:398, 2311 
0:0:1:414, 2296 
0:0:1:430, 2272 
0:0:1:445, 2249 
0:0:1:460, 2209 
0:0:1:476, 2167 
0:0:1:492, 2121 
0:0:1:507, 2077 
0:0:1:522, 2007 
0:0:1:538, 1943 
0:0:1:553, 1877 
0:0:1:568, 1822 
0:0:1:583, 1750 
0:0:1:599, 1662 
0:0:1:615, 1595 
0:0:1:631, 1534 
0:0:1:647, 1489 
0:0:1:663, 1434 
0:0:1:679, 1395 
0:0:1:694, 1348 
0:0:1:709, 1322 
0:0:1:725, 1296 
0:0:1:740, 1271 
0:0:1:755, 1248 
0:0:1:771, 1217 
0:0:1:786, 1184 
0:0:1:802, 1155 
0:0:1:818, 1148 
0:0:1:834, 1167 
0:0:1:850, 1284 
0:0:1:866, 1561 
0:0:1:882, 1969 
0:0:1:897, 2307 
0:0:1:912, 2631 
0:0:1:928, 2981 
0:0:1:944, 3227 
0:0:1:960, 3316 
0:0:1:975, 3319 
0:0:1:990, 3267 
0:0:2:6, 3164 
0:0:2:22, 3061 
0:0:2:38, 2958 
0:0:2:53, 2851 
0:0:2:69, 2712 
0:0:2:84, 2625 
0:0:2:100, 2478 
0:0:2:116, 2424 
0:0:2:132, 2332 
0:0:2:148, 2267 
0:0:2:164, 2242 
0:0:2:179, 2231 
0:0:2:195, 2248 
0:0:2:210, 2269 
0:0:2:225, 2277 
0:0:2:240, 2281 
0:0:2:256, 2269 
0:0:2:272, 2249 
0:0:2:288, 2209 
0:0:2:304, 2158 
0:0:2:319, 2104 
0:0:2:334, 2060 
0:0:2:350, 1979 
0:0:2:366, 1908 
0:0:2:382, 1841 
0:0:2:398, 1758 
0:0:2:414, 1696 
0:0:2:430, 1627 
0:0:2:445, 1573 
0:0:2:460, 1520 
0:0:2:475, 1472 
0:0:2:491, 1426 
0:0:2:507, 1379 
0:0:2:523, 1351 
0:0:2:539, 1313 
0:0:2:555, 1286 
0:0:2:571, 1262 
0:0:2:587, 1250 
0:0:2:603, 1245 
0:0:2:619, 1274 
0:0:2:635, 1448 
0:0:2:651, 1744 
0:0:2:666, 2031 
0:0:2:681, 2232 
0:0:2:696, 2425 
0:0:2:712, 2687 
0:0:2:728, 2834 
0:0:2:744, 2899 
0:0:2:760, 3073 
0:0:2:776, 3157 
0:0:2:791, 3168 
0:0:2:807, 3127 
0:0:2:823, 3048 
0:0:2:839, 2957 
0:0:2:855, 2856 
0:0:2:871, 2772 
0:0:2:887, 2661 
0:0:2:902, 2542 
0:0:2:917, 2418 
0:0:2:932, 2358 
0:0:2:948, 2246 
0:0:2:964, 2163 
0:0:2:980, 2119 
0:0:2:996, 2107 
0:0:3:12, 2132 
0:0:3:27, 2163 
0:0:3:42, 2180 
0:0:3:57, 2184 
0:0:3:73, 2169 
0:0:3:88, 2149 
0:0:3:103, 2114 
0:0:3:118, 2070 
0:0:3:133, 2013 
0:0:3:148, 1984 
0:0:3:163, 1942 
0:0:3:179, 1879 
0:0:3:195, 1810 
0:0:3:211, 1742 
0:0:3:227, 1670 
0:0:3:243, 1619 
0:0:3:259, 1556 
0:0:3:275, 1498 
0:0:3:291, 1441 
0:0:3:306, 1395 
0:0:3:321, 1362 
0:0:3:337, 1323 
0:0:3:353, 1302 
0:0:3:368, 1282 
0:0:3:383, 1257 
0:0:3:398, 1244 
0:0:3:414, 1220 
0:0:3:429, 1195 
0:0:3:444, 1177 
0:0:3:460, 1159 
0:0:3:476, 1175 
0:0:3:492, 1278 
0:0:3:508, 1446 
0:0:3:524, 1901 
0:0:3:540, 2330 
0:0:3:556, 2626 
0:0:3:572, 2878 
0:0:3:587, 3137 
0:0:3:603, 3242 
0:0:3:618, 3241 
0:0:3:633, 3181 
0:0:3:648, 3094 
0:0:3:663, 2994 
0:0:3:679, 2923 
0:0:3:695, 2902 
0:0:3:710, 2859 
0:0:3:725, 2808 
0:0:3:741, 2737 
0:0:3:756, 2641 
0:0:3:771, 2590 
0:0:3:787, 2482 
0:0:3:803, 2408 
0:0:3:819, 2316 
0:0:3:835, 2275 
0:0:3:851, 2263 
0:0:3:866, 2263 
0:0:3:882, 2271 
0:0:3:898, 2276 
0:0:3:913, 2276 
0:0:3:928, 2264 
0:0:3:944, 2237 
0:0:3:960, 2203 
0:0:3:975, 2159 
0:0:3:991, 2113 
0:0:4:7, 2055 
0:0:4:23, 1975 
0:0:4:39, 1913 
0:0:4:55, 1832 
0:0:4:71, 1763 
0:0:4:87, 1697 
0:0:4:102, 1652 
0:0:4:117, 1611 
0:0:4:133, 1557 
0:0:4:149, 1509 
0:0:4:165, 1472 
0:0:4:180, 1436 
0:0:4:196, 1412 
0:0:4:212, 1385 
0:0:4:228, 1368 
0:0:4:244, 1347 
0:0:4:260, 1327 
0:0:4:275, 1309 
0:0:4:290, 1274 
0:0:4:305, 1259 
0:0:4:320, 1262 
0:0:4:335, 1332 
0:0:4:350, 1539 
0:0:4:366, 1984 
0:0:4:382, 2292 
0:0:4:398, 2756 
0:0:4:413, 3048 
0:0:4:428, 3200 
0:0:4:444, 3243 
0:0:4:459, 3209 
0:0:4:474, 3147 
0:0:4:490, 3071 
0:0:4:506, 2958 
0:0:4:522, 2888 
0:0:4:538, 2817 
0:0:4:553, 2739 
0:0:4:568, 2684 
0:0:4:584, 2600 
0:0:4:600, 2493 
0:0:4:616, 2391 
0:0:4:631, 2307 
0:0:4:646, 2262 
0:0:4:662, 2241 
0:0:4:678, 2243 
0:0:4:693, 2247 
0:0:4:709, 2246 
0:0:4:724, 2240 
0:0:4:740, 2223 
0:0:4:756, 2179 
0:0:4:772, 2133 
0:0:4:787, 2074 
0:0:4:802, 2009 
0:0:4:817, 1945 
0:0:4:833, 1857 
0:0:4:849, 1790 
0:0:4:865, 1700 
0:0:4:881, 1632 
0:0:4:897, 1576 
0:0:4:913, 1515 
0:0:4:928, 1476 
0:0:4:944, 1441 
0:0:4:960, 1409 
0:0:4:976, 1405 
0:0:4:992, 1400 
0:0:5:7, 1394 
0:0:5:22, 1387 
0:0:5:37, 1374 
0:0:5:53, 1346 
0:0:5:69, 1320 
0:0:5:85, 1288 
0:0:5:101, 1266 
0:0:5:117, 1244 
0:0:5:133, 1265 
0:0:5:148, 1381 
0:0:5:164, 1719 
0:0:5:180, 2099 
0:0:5:196, 2492 
0:0:5:211, 2823 
0:0:5:227, 3024 
0:0:5:243, 3176 
0:0:5:258, 3185 
0:0:5:273, 3135 
0:0:5:288, 3040 
0:0:5:303, 2948 
0:0:5:318, 2859 
0:0:5:334, 2789 
0:0:5:350, 2662 
0:0:5:366, 2584 
0:0:5:382, 2498 
0:0:5:398, 2411 
0:0:5:414, 2308 
0:0:5:429, 2246 
0:0:5:446, 2195 
0:0:5:462, 2159 
0:0:5:477, 2151 
0:0:5:492, 2155 
0:0:5:507, 2165 
0:0:5:523, 2172 
0:0:5:539, 2164 
0:0:5:554, 2148 
0:0:5:569, 2115 
0:0:5:584, 2078 
0:0:5:600, 2038 
0:0:5:616, 1976 
0:0:5:632, 1908 
0:0:5:648, 1818 
0:0:5:664, 1746 
0:0:5:680, 1683 
0:0:5:696, 1605 
0:0:5:712, 1541 
0:0:5:727, 1479 
0:0:5:742, 1437 
0:0:5:758, 1425 
0:0:5:774, 1395 
0:0:5:789, 1369 
0:0:5:805, 1344 
0:0:5:821, 1319 
0:0:5:836, 1300 
0:0:5:852, 1284 
0:0:5:868, 1274 
0:0:5:884, 1260 
0:0:5:900, 1254 
0:0:5:916, 1239 
0:0:5:932, 1225 
0:0:5:947, 1215 
0:0:5:961, 1206 
0:0:5:976, 1191 
0:0:5:992, 1175 
0:0:6:7, 1177 
0:0:6:22, 1189 
0:0:6:38, 1241 
0:0:6:53, 1425 
0:0:6:69, 1660 
0:0:6:85, 2059 
0:0:6:101, 2377 
0:0:6:117, 2744 
0:0:6:132, 2949 
0:0:6:148, 3077 
0:0:6:164, 3158 
0:0:6:179, 3187 
0:0:6:194, 3165 
0:0:6:209, 3134 
0:0:6:225, 3076 
0:0:6:241, 3029 
0:0:6:257, 2935 
0:0:6:273, 2861 
0:0:6:289, 2763 
0:0:6:304, 2709 
0:0:6:320, 2622 
0:0:6:335, 2534 
0:0:6:350, 2415 
0:0:6:366, 2326 
0:0:6:381, 2219 
0:0:6:397, 2163 
0:0:6:413, 2138 
0:0:6:428, 2118 
0:0:6:443, 2112 
0:0:6:459, 2111 
0:0:6:475, 2111 
0:0:6:491, 2129 
0:0:6:506, 2144 
0:0:6:521, 2151 
0:0:6:537, 2151 
0:0:6:552, 2154 
0:0:6:568, 2155 
0:0:6:584, 2157 
0:0:6:599, 2157 
0:0:6:615, 2157 
0:0:6:630, 2157 
0:0:6:646, 2154 
0:0:6:662, 2151 
0:0:6:677, 2129 
0:0:6:692, 2101 
0:0:6:708, 2072 
0:0:6:723, 2034 
0:0:6:738, 1986 
0:0:6:754, 1936 
0:0:6:769, 1867 
0:0:6:784, 1811 
0:0:6:800, 1740 
0:0:6:815, 1691 
0:0:6:830, 1642 
0:0:6:845, 1596 
0:0:6:861, 1558 
0:0:6:876, 1521 
0:0:6:892, 1472 
0:0:6:908, 1423 
0:0:6:922, 1391 
0:0:6:937, 1352 
0:0:6:953, 1325 
0:0:6:968, 1302 
0:0:6:984, 1281 
0:0:7:0, 1262 
0:0:7:15, 1240 
0:0:7:31, 1216 
0:0:7:47, 1197 
0:0:7:63, 1182 
0:0:7:78, 1174 
0:0:7:94, 1201 
0:0:7:110, 1317 
0:0:7:126, 1673 
0:0:7:141, 2071 
0:0:7:156, 2378 
0:0:7:172, 2735 
0:0:7:188, 3057 
0:0:7:204, 3156 
0:0:7:220, 3166 
0:0:7:236, 3113 
0:0:7:252, 3025 
0:0:7:268, 2947 
0:0:7:283, 2836 
0:0:7:299, 2717 
0:0:7:314, 2559 
0:0:7:329, 2430 
0:0:7:345, 2281 
0:0:7:361, 2169 
0:0:7:376, 2085 
0:0:7:391, 2046 
0:0:7:407, 2047 
0:0:7:423, 2075 
0:0:7:439, 2126 
0:0:7:455, 2145 
0:0:7:471, 2152 
0:0:7:488, 2149 
0:0:7:504, 2121 
0:0:7:519, 2075 
0:0:7:536, 2015 
0:0:7:551, 1927 
0:0:7:568, 1849 
0:0:7:583, 1756 
0:0:7:599, 1702 
0:0:7:614, 1627 
0:0:7:629, 1572 
0:0:7:645, 1488 
0:0:7:661, 1441 
0:0:7:677, 1386 
0:0:7:692, 1335 
0:0:7:708, 1282 
0:0:7:724, 1252 
0:0:7:740, 1229 
0:0:7:756, 1196 
0:0:7:772, 1177 
0:0:7:787, 1151 
0:0:7:803, 1134 
0:0:7:819, 1122 
0:0:7:835, 1113 
0:0:7:850, 1137 
0:0:7:865, 1211 
0:0:7:881, 1446 
0:0:7:897, 1841 
0:0:7:913, 2415 
0:0:7:929, 2733 
0:0:7:945, 3149 
0:0:7:961, 3300 
0:0:7:977, 3334 
0:0:7:992, 3287 
0:0:8:7, 3208 
0:0:8:22, 3114 
0:0:8:38, 2989 
0:0:8:54, 2868 
0:0:8:70, 2792 
0:0:8:85, 2683 
0:0:8:100, 2563 
0:0:8:115, 2420 
0:0:8:130, 2334 
0:0:8:146, 2280 
0:0:8:162, 2248 
0:0:8:177, 2251 
0:0:8:192, 2259 
0:0:8:208, 2270 
0:0:8:224, 2275 
0:0:8:240, 2255 
0:0:8:256, 2223 
0:0:8:272, 2189 
0:0:8:288, 2133 
0:0:8:304, 2055 
0:0:8:319, 1984 
0:0:8:334, 1914 
0:0:8:350, 1845 
0:0:8:366, 1753 
0:0:8:381, 1684 
0:0:8:396, 1618 
0:0:8:412, 1552 
0:0:8:428, 1483 
0:0:8:444, 1428 
0:0:8:459, 1375 
0:0:8:474, 1348 
0:0:8:490, 1321 
0:0:8:505, 1297 
0:0:8:520, 1269 
0:0:8:536, 1258 
0:0:8:551, 1239 
0:0:8:566, 1215 
0:0:8:581, 1186 
0:0:8:597, 1168 
0:0:8:613, 1196 
0:0:8:629, 1329 
0:0:8:645, 1623 
0:0:8:661, 2129 
0:0:8:677, 2438 
0:0:8:693, 2793 
0:0:8:709, 3114 
0:0:8:725, 3188 
0:0:8:741, 3210 
0:0:8:757, 3159 
0:0:8:773, 3075 
0:0:8:788, 2988 
0:0:8:803, 2892 
0:0:8:818, 2769 
0:0:8:834, 2673 
0:0:8:850, 2534 
0:0:8:866, 2422 
0:0:8:882, 2315 
0:0:8:898, 2224 
0:0:8:914, 2166 
0:0:8:930, 2132 
0:0:8:946, 2132 
0:0:8:962, 2149 
0:0:8:977, 2168 
0:0:8:992, 2175 
0:0:9:8, 1799 
0:0:9:23, 1729 
0:0:9:38, 1653 
0:0:9:54, 1561 
0:0:9:70, 1494 
0:0:9:86, 1444 
0:0:9:102, 1367 
0:0:9:117, 1327 
0:0:9:133, 1262 
0:0:9:149, 1226 
0:0:9:165, 1189 
0:0:9:180, 1165 
0:0:9:196, 1146 
0:0:9:211, 1129 
0:0:9:227, 1108 
0:0:9:243, 1092 
0:0:9:258, 1075 
0:0:9:273, 1056 
0:0:9:289, 1049 
0:0:9:305, 1059 
0:0:9:321, 1189 
0:0:9:337, 1466 
0:0:9:352, 1885 
0:0:9:367, 2455 
0:0:9:383, 2837 
0:0:9:399, 3069 
0:0:9:414, 3215 
0:0:9:430, 3239 
0:0:9:446, 3185 
0:0:9:462, 3074 
0:0:9:475, 2999 
0:0:9:492, 2871 
0:0:9:507, 2795 
0:0:9:522, 2694 
0:0:9:538, 2557 
0:0:9:554, 2434 
0:0:9:570, 2292 
0:0:9:586, 2203 
0:0:9:602, 2135 
0:0:9:618, 2124 
0:0:9:634, 2133 
0:0:9:650, 2149 
0:0:9:666, 2161 
0:0:9:681, 2156 
0:0:9:696, 2141 
0:0:9:712, 2128 
0:0:9:727, 2089 
0:0:9:742, 2041 
0:0:9:758, 2001 
0:0:9:774, 1918 
0:0:9:789, 1848 
0:0:9:805, 1773 
0:0:9:820, 1695 
0:0:9:836, 1604 
0:0:9:852, 1530 
0:0:9:868, 1444 
0:0:9:884, 1386 
0:0:9:900, 1318 
0:0:9:915, 1284 
0:0:9:930, 1245 
0:0:9:945, 1213 
0:0:9:960, 1191 
0:0:9:975, 1172 
0:0:9:990, 1150 
0:0:10:6, 1113 
0:0:10:21, 1062 
0:0:10:37, 1015 
0:0:10:52, 977 
0:0:10:68, 953 
0:0:10:83, 980 
0:0:10:99, 1121 
0:0:10:115, 1531 
0:0:10:131, 1863 
0:0:10:147, 2414 
0:0:10:163, 2765 
0:0:10:178, 3022 
0:0:10:193, 3108 
0:0:10:208, 3109 
0:0:10:224, 3066 
0:0:10:240, 2954 
0:0:10:256, 2841 
0:0:10:272, 2678 
0:0:10:288, 2537 
0:0:10:303, 2389 
0:0:10:319, 2215 
0:0:10:335, 2088 
0:0:10:351, 1991 
0:0:10:366, 1923 
0:0:10:381, 1915 
0:0:10:397, 1959 
0:0:10:413, 2020 
0:0:10:428, 2093 
0:0:10:443, 2123 
0:0:10:459, 2122 
0:0:10:475, 2098 
0:0:10:490, 2056 
0:0:10:506, 1997 
0:0:10:522, 1937 
0:0:10:537, 1880 
0:0:10:553, 1786 
0:0:10:568, 1712 
0:0:10:584, 1635 
0:0:10:600, 1545 
0:0:10:616, 1462 
0:0:10:632, 1408 
0:0:10:648, 1359 
0:0:10:663, 1313 
0:0:10:678, 1273 
0:0:10:694, 1232 
0:0:10:710, 1187 
0:0:10:726, 1159 
0:0:10:742, 1141 
0:0:10:757, 1125 
0:0:10:772, 1116 
0:0:10:787, 1172 
0:0:10:803, 1362 
0:0:10:819, 1713 
0:0:10:835, 2268 
0:0:10:851, 2767 
0:0:10:867, 3075 
0:0:10:883, 3237 
0:0:10:898, 3242 
0:0:10:913, 3192 
0:0:10:928, 3099 
0:0:10:944, 2968 
0:0:10:960, 2888 
0:0:10:975, 2781 
0:0:10:990, 2647 
0:0:11:6, 2522 
0:0:11:22, 2356 
0:0:11:38, 2237 
0:0:11:53, 2129 
0:0:11:69, 2089 
0:0:11:84, 2100 
0:0:11:100, 2121 
0:0:11:115, 2152 
0:0:11:130, 2180 
0:0:11:145, 2181 
0:0:11:160, 2167 
0:0:11:175, 2135 
0:0:11:191, 2088 
0:0:11:207, 2024 
0:0:11:223, 1964 
0:0:11:239, 1895 
0:0:11:254, 1803 
0:0:11:269, 1725 
0:0:11:284, 1650 
0:0:11:300, 1563 
0:0:11:316, 1485 
0:0:11:332, 1431 
0:0:11:348, 1365 
0:0:11:363, 1333 
0:0:11:379, 1284 
0:0:11:395, 1255 
0:0:11:410, 1235 
0:0:11:426, 1215 
0:0:11:442, 1195 
0:0:11:458, 1175 
0:0:11:474, 1168 
0:0:11:489, 1207 
0:0:11:505, 1404 
0:0:11:521, 1740 
0:0:11:537, 2180 
0:0:11:553, 2618 
0:0:11:569, 2968 
0:0:11:585, 3226 
0:0:11:600, 3323 
0:0:11:615, 3332 
0:0:11:630, 3300 
0:0:11:646, 3252 
0:0:11:662, 3189 
0:0:11:678, 3098 
0:0:11:693, 3010 
0:0:11:709, 2913 
0:0:11:725, 2837 
0:0:11:741, 2761 
0:0:11:756, 2656 
0:0:11:771, 2540 
0:0:11:787, 2429 
0:0:11:803, 2349 
0:0:11:819, 2293 
0:0:11:834, 2260 
0:0:11:849, 2252 
0:0:11:865, 2253 
0:0:11:881, 2251 
0:0:11:897, 2246 
0:0:11:913, 2229 
0:0:11:929, 2207 
0:0:11:945, 2163 
0:0:11:961, 2103 
0:0:11:977, 2043 
0:0:11:993, 1973 
0:0:12:9, 1899 
0:0:12:25, 1822 
0:0:12:41, 1728 
0:0:12:56, 1680 
0:0:12:72, 1633 
0:0:12:87, 1584 
0:0:12:103, 1540 
0:0:12:118, 1489 
0:0:12:134, 1438 
0:0:12:150, 1395 
0:0:12:166, 1368 
0:0:12:182, 1347 
0:0:12:198, 1322 
0:0:12:214, 1305 
0:0:12:230, 1284 
0:0:12:246, 1261 
0:0:12:262, 1247 
0:0:12:278, 1241 
0:0:12:294, 1238 
0:0:12:309, 1271 
0:0:12:324, 1402 
0:0:12:340, 1681 
0:0:12:356, 2073 
0:0:12:372, 2582 
0:0:12:387, 2838 
0:0:12:403, 3062 
0:0:12:419, 3208 
0:0:12:434, 3246 
0:0:12:450, 3235 
0:0:12:466, 3176 
0:0:12:482, 3077 
0:0:12:497, 2990 
0:0:12:513, 2897 
0:0:12:529, 2807 
0:0:12:545, 2698 
0:0:12:561, 2587 
0:0:12:577, 2503 
0:0:12:592, 2418 
0:0:12:607, 2319 
0:0:12:622, 2268 
0:0:12:638, 2232 
0:0:12:654, 2202 
0:0:12:670, 2195 
0:0:12:686, 2196 
0:0:12:702, 2201 
0:0:12:718, 2209 
0:0:12:733, 2206 
0:0:12:748, 2186 
0:0:12:764, 2154 
0:0:12:779, 2108 
0:0:12:795, 2039 
0:0:12:811, 1990 
0:0:12:827, 1920 
0:0:12:842, 1847 
0:0:12:857, 1792 
0:0:12:873, 1724 
0:0:12:889, 1676 
0:0:12:905, 1626 
0:0:12:921, 1561 
0:0:12:937, 1500 
0:0:12:953, 1456 
0:0:12:969, 1420 
0:0:12:984, 1388 
0:0:13:0, 1359 
0:0:13:16, 1344 
0:0:13:32, 1327 
0:0:13:48, 1307 
0:0:13:64, 1281 
0:0:13:80, 1263 
0:0:13:95, 1247 
0:0:13:110, 1230 
0:0:13:126, 1209 
0:0:13:142, 1183 
0:0:13:157, 1168 
0:0:13:173, 1190 
0:0:13:188, 1299 
0:0:13:204, 1555 
0:0:13:219, 1840 
0:0:13:234, 2268 
0:0:13:250, 2660 
0:0:13:266, 2960 
0:0:13:281, 3138 
0:0:13:297, 3225 
0:0:13:312, 3221 
0:0:13:327, 3173 
0:0:13:343, 3064 
0:0:13:359, 2968 
0:0:13:375, 2873 
0:0:13:391, 2749 
0:0:13:407, 2641 
0:0:13:423, 2552 
0:0:13:439, 2463 
0:0:13:455, 2350 
0:0:13:471, 2253 
0:0:13:487, 2189 
0:0:13:503, 2157 
0:0:13:519, 2154 
0:0:13:535, 2170 
0:0:13:550, 2185 
0:0:13:565, 2190 
0:0:13:580, 2185 
0:0:13:596, 2145 
0:0:13:612, 2115 
0:0:13:628, 2080 
0:0:13:644, 2020 
0:0:13:660, 1973 
0:0:13:676, 1922 
0:0:13:692, 1867 
0:0:13:708, 1812 
0:0:13:724, 1763 
0:0:13:740, 1699 
0:0:13:756, 1630 
0:0:13:772, 1568 
0:0:13:787, 1508 
0:0:13:802, 1454 
0:0:13:818, 1401 
0:0:13:834, 1374 
0:0:13:850, 1347 
0:0:13:865, 1330 
0:0:13:881, 1315 
0:0:13:896, 1300 
0:0:13:911, 1286 
0:0:13:927, 1266 
0:0:13:943, 1257 
0:0:13:959, 1248 
0:0:13:975, 1232 
0:0:13:990, 1225 
0:0:14:6, 1217 
0:0:14:21, 1219 
0:0:14:36, 1253 
0:0:14:52, 1398 
0:0:14:68, 1775 
0:0:14:84, 2172 
0:0:14:100, 2560 
0:0:14:116, 2866 
0:0:14:132, 3091 
0:0:14:148, 3158 
0:0:14:164, 3138 
0:0:14:180, 3042 
0:0:14:196, 2945 
0:0:14:212, 2837 
0:0:14:228, 2730 
0:0:14:244, 2651 
0:0:14:259, 2546 
0:0:14:274, 2458 
0:0:14:289, 2342 
0:0:14:305, 2231 
0:0:14:321, 2135 
0:0:14:337, 2072 
0:0:14:353, 2051 
0:0:14:369, 2077 
0:0:14:385, 2119 
0:0:14:401, 2144 
0:0:14:417, 2147 
0:0:14:433, 2131 
0:0:14:448, 2108 
0:0:14:464, 2071 
0:0:14:479, 2019 
0:0:14:494, 1955 
0:0:14:509, 1886 
0:0:14:524, 1810 
0:0:14:540, 1737 
0:0:14:556, 1649 
0:0:14:572, 1575 
0:0:14:588, 1511 
0:0:14:604, 1446 
0:0:14:620, 1402 
0:0:14:636, 1360 
0:0:14:652, 1324 
0:0:14:668, 1283 
0:0:14:684, 1258 
0:0:14:700, 1241 
0:0:14:716, 1229 
0:0:14:731, 1227 
0:0:14:746, 1228 
0:0:14:761, 1232 
0:0:14:776, 1226 
0:0:14:791, 1214 
0:0:14:807, 1201 
0:0:14:823, 1178 
0:0:14:839, 1173 
0:0:14:855, 1198 
0:0:14:871, 1327 
0:0:14:887, 1622 
0:0:14:902, 2044 
0:0:14:917, 2500 
0:0:14:933, 2891 
0:0:14:949, 3242 
0:0:14:964, 3341 
0:0:14:979, 3347 
0:0:14:994, 3293 
0:0:15:10, 3200 
0:0:15:26, 3067 
0:0:15:42, 2967 
0:0:15:57, 2889 
0:0:15:73, 2783 
0:0:15:89, 2671 
0:0:15:105, 2519 
0:0:15:121, 2464 
0:0:15:137, 2366 
0:0:15:153, 2291 
0:0:15:168, 2246 
0:0:15:183, 2225 
0:0:15:198, 2223 
0:0:15:213, 2229 
0:0:15:229, 2231 
0:0:15:245, 2231 
0:0:15:261, 2225 
0:0:15:277, 2194 
0:0:15:293, 2142 
0:0:15:309, 2082 
0:0:15:325, 2011 
0:0:15:341, 1941 
0:0:15:357, 1845 
0:0:15:373, 1769 
0:0:15:389, 1695 
0:0:15:405, 1621 
0:0:15:421, 1558 
0:0:15:436, 1496 
0:0:15:451, 1443 
0:0:15:467, 1399 
0:0:15:482, 1369 
0:0:15:498, 1328 
0:0:15:514, 1301 
0:0:15:530, 1279 
0:0:15:546, 1266 
0:0:15:562, 1249 
0:0:15:578, 1235 
0:0:15:594, 1222 
0:0:15:610, 1208 
0:0:15:626, 1193 
0:0:15:642, 1181 
0:0:15:658, 1163 
0:0:15:673, 1163 
0:0:15:688, 1193 
0:0:15:704, 1284 
0:0:15:720, 1463 
0:0:15:736, 1845 
0:0:15:752, 2298 
0:0:15:767, 2716 
0:0:15:783, 3041 
0:0:15:799, 3269 
0:0:15:815, 3333 
0:0:15:830, 3298 
0:0:15:845, 3239 
0:0:15:861, 3119 
0:0:15:877, 3041 
0:0:15:893, 2936 
0:0:15:908, 2862 
0:0:15:923, 2758 
0:0:15:939, 2642 
0:0:15:954, 2525 
0:0:15:969, 2438 
0:0:15:985, 2328 
0:0:16:1, 2244 
0:0:16:17, 2202 
0:0:16:33, 2179 
0:0:16:49, 2179 
0:0:16:65, 2193 
0:0:16:81, 2203 
0:0:16:97, 2217 
0:0:16:113, 2206 
0:0:16:128, 2177 
0:0:16:143, 2134 
0:0:16:158, 2073 
0:0:16:173, 2025 
0:0:16:189, 1937 
0:0:16:205, 1862 
0:0:16:221, 1792 
0:0:16:237, 1717 
0:0:16:253, 1647 
0:0:16:269, 1578 
0:0:16:284, 1526 
0:0:16:300, 1467 
0:0:16:316, 1413 
0:0:16:332, 1355 
0:0:16:348, 1327 
0:0:16:364, 1301 
0:0:16:379, 1268 
0:0:16:394, 1243 
0:0:16:410, 1222 
0:0:16:426, 1203 
0:0:16:441, 1192 
0:0:16:457, 1172 
0:0:16:473, 1159 
0:0:16:489, 1146 
0:0:16:505, 1125 
0:0:16:521, 1110 
0:0:16:537, 1119 
0:0:16:552, 1199 
0:0:16:567, 1434 
0:0:16:582, 1825 
0:0:16:598, 2400 
0:0:16:613, 2717 
0:0:16:628, 2971 
0:0:16:644, 3181 
0:0:16:660, 3273 
0:0:16:676, 3307 
0:0:16:692, 3279 
0:0:16:708, 3203 
0:0:16:724, 3125 
0:0:16:739, 3067 
0:0:16:754, 2973 
0:0:16:770, 2864 
0:0:16:785, 2753 
0:0:16:801, 2635 
0:0:16:817, 2509 
0:0:16:833, 2379 
0:0:16:848, 2244 
0:0:16:863, 2162 
0:0:16:878, 2110 
0:0:16:894, 2095 
0:0:16:910, 2104 
0:0:16:926, 2127 
0:0:16:941, 2143 
0:0:16:956, 2156 
0:0:16:972, 2163 
0:0:16:987, 2153 
0:0:17:3, 2124 
0:0:17:19, 2078 
0:0:17:35, 2004 
0:0:17:51, 1938 
0:0:17:67, 1863 
0:0:17:83, 1784 
0:0:17:98, 1727 
0:0:17:114, 1646 
0:0:17:130, 1545 
0:0:17:145, 1474 
0:0:17:161, 1410 
0:0:17:177, 1350 
0:0:17:192, 1301 
0:0:17:208, 1254 
0:0:17:224, 1218 
0:0:17:240, 1187 
0:0:17:256, 1165 
0:0:17:272, 1155 
0:0:17:288, 1144 
0:0:17:304, 1129 
0:0:17:319, 1112 
0:0:17:334, 1095 
0:0:17:350, 1075 
0:0:17:365, 1063 
0:0:17:380, 1063 
0:0:17:396, 1105 
0:0:17:412, 1259 
0:0:17:428, 1590 
0:0:17:444, 2163 
0:0:17:459, 2515 
0:0:17:475, 2908 
0:0:17:491, 3142 
0:0:17:506, 3287 
0:0:17:521, 3305 
0:0:17:537, 3246 
0:0:17:552, 3176 
0:0:17:567, 3066 
0:0:17:582, 2945 
0:0:17:598, 2791 
0:0:17:614, 2694 
0:0:17:630, 2592 
0:0:17:646, 2491 
0:0:17:662, 2355 
0:0:17:678, 2222 
0:0:17:694, 2137 
0:0:17:710, 2073 
0:0:17:725, 2028 
0:0:17:740, 2005 
0:0:17:756, 2015 
0:0:17:772, 2051 
0:0:17:787, 2093 
0:0:17:802, 2129 
0:0:17:817, 2141 
0:0:17:833, 2128 
0:0:17:849, 2094 
0:0:17:865, 2038 
0:0:17:881, 1990 
0:0:17:897, 1924 
0:0:17:913, 1844 
0:0:17:929, 1782 
0:0:17:945, 1697 
0:0:17:961, 1634 
0:0:17:977, 1573 
0:0:17:992, 1513 
0:0:18:8, 1458 
0:0:18:23, 1389 
0:0:18:38, 1344 
0:0:18:54, 1281 
0:0:18:70, 1222 
0:0:18:86, 1176 
0:0:18:102, 1138 
0:0:18:119, 1110 
0:0:18:134, 1072 
0:0:18:150, 1056 
0:0:18:167, 1051 
0:0:18:182, 1041 
0:0:18:197, 1027 
0:0:18:213, 1006 
0:0:18:228, 995 
0:0:18:243, 984 
0:0:18:258, 992 
0:0:18:273, 1029 
0:0:18:289, 1050 
0:0:18:305, 1050 
0:0:18:320, 1124 
0:0:18:336, 1176 
0:0:18:351, 1320 
0:0:18:367, 1870 
0:0:18:383, 2268 
0:0:18:399, 2531 
0:0:18:415, 2772 
0:0:18:429, 3157 
0:0:18:445, 3430 
0:0:18:460, 3503 
0:0:18:475, 3516 
0:0:18:490, 3461 
0:0:18:505, 3391 
0:0:18:521, 3271 
0:0:18:537, 3176 
0:0:18:553, 3058 
0:0:18:569, 2939 
0:0:18:585, 2850 
0:0:18:601, 2720 
0:0:18:616, 2617 
0:0:18:631, 2518 
0:0:18:646, 2421 
0:0:18:662, 2177 
0:0:18:677, 2178 
0:0:18:693, 2200 
0:0:18:709, 2216 
0:0:18:724, 2228 
0:0:18:739, 2232 
0:0:18:755, 2228 
0:0:18:771, 2213 
0:0:18:786, 2185 
0:0:18:801, 2128 
0:0:18:817, 2058 
0:0:18:832, 1975 
0:0:18:847, 1883 
0:0:18:863, 1819 
0:0:18:879, 1742 
0:0:18:894, 1683 
0:0:18:910, 1607 
0:0:18:926, 1528 
0:0:18:941, 1468 
0:0:18:956, 1393 
0:0:18:971, 1333 
0:0:18:987, 1279 
0:0:19:3, 1239 
0:0:19:19, 1197 
0:0:19:35, 1168 
0:0:19:51, 1150 
0:0:19:67, 1129 
0:0:19:82, 1112 
0:0:19:97, 1095 
0:0:19:112, 1081 
0:0:19:127, 1068 
0:0:19:143, 1059 
0:0:19:159, 1052 
0:0:19:175, 1042 
0:0:19:190, 1038 
0:0:19:206, 1077 
0:0:19:221, 1182 
0:0:19:237, 1488 
0:0:19:252, 1833 
0:0:19:268, 2362 
0:0:19:284, 2734 
0:0:19:300, 3131 
0:0:19:315, 3409 
0:0:19:331, 3502 
0:0:19:347, 3494 
0:0:19:362, 3441 
0:0:19:377, 3361 
0:0:19:392, 3239 
0:0:19:408, 3145 
0:0:19:423, 3016 
0:0:19:438, 2899 
0:0:19:454, 2784 
0:0:19:470, 2655 
0:0:19:485, 2478 
0:0:19:501, 2344 
0:0:19:516, 2240 
0:0:19:531, 2189 
0:0:19:547, 2150 
0:0:19:563, 2147 
0:0:19:579, 2164 
0:0:19:595, 2181 
0:0:19:611, 2205 
0:0:19:626, 2213 
0:0:19:641, 2205 
0:0:19:656, 2187 
0:0:19:671, 2142 
0:0:19:686, 2080 
0:0:19:702, 2031 
0:0:19:717, 1981 
0:0:19:733, 1922 
0:0:19:749, 1837 
0:0:19:765, 1769 
0:0:19:780, 1698 
0:0:19:796, 1607 
0:0:19:812, 1527 
0:0:19:827, 1452 
0:0:19:843, 1385 
0:0:19:859, 1322 
0:0:19:875, 1262 
0:0:19:890, 1210 
0:0:19:905, 1166 
0:0:19:921, 1128 
0:0:19:937, 1102 
0:0:19:953, 1083 
0:0:19:969, 1060 
0:0:19:985, 1045 
0:0:20:1, 1026 
0:0:20:17, 1012 
0:0:20:33, 1001 
0:0:20:49, 988 
0:0:20:65, 981 
0:0:20:81, 1000 
0:0:20:97, 1171 
0:0:20:113, 1512 
0:0:20:128, 1878 
0:0:20:143, 2414 
0:0:20:159, 2883 
0:0:20:175, 3150 
0:0:20:190, 3361 
0:0:20:206, 3454 
0:0:20:222, 3447 
0:0:20:238, 3340 
0:0:20:254, 3212 
0:0:20:270, 3041 
0:0:20:285, 2936 
0:0:20:301, 2801 
0:0:20:317, 2664 
0:0:20:333, 2470 
0:0:20:349, 2329 
0:0:20:364, 2234 
0:0:20:379, 2105 
0:0:20:395, 2064 
0:0:20:411, 2038 
0:0:20:426, 1780 
0:0:20:442, 1716 
0:0:20:458, 1611 
0:0:20:474, 1548 
0:0:20:489, 1468 
0:0:20:505, 1396 
0:0:20:521, 1325 
0:0:20:537, 1252 
0:0:20:553, 1204 
0:0:20:569, 1157 
0:0:20:584, 1118 
0:0:20:599, 1092 
0:0:20:614, 1069 
0:0:20:630, 1048 
0:0:20:647, 1029 
0:0:20:662, 1017 
0:0:20:679, 1001 
0:0:20:694, 983 
0:0:20:710, 969 
0:0:20:726, 966 
0:0:20:742, 970 
0:0:20:758, 1045 
0:0:20:773, 1282 
0:0:20:789, 1593 
0:0:20:805, 2129 
0:0:20:821, 2683 
0:0:20:836, 3130 
0:0:20:851, 3465 
0:0:20:867, 3589 
0:0:20:883, 3588 
0:0:20:898, 3514 
0:0:20:914, 3391 
0:0:20:930, 3250 
0:0:20:946, 3110 
0:0:20:962, 2973 
0:0:20:978, 2836 
0:0:20:994, 2697 
0:0:21:10, 2588 
0:0:21:26, 2443 
0:0:21:42, 2349 
0:0:21:58, 2244 
0:0:21:73, 2168 
0:0:21:88, 2130 
0:0:21:104, 2146 
0:0:21:119, 2177 
0:0:21:134, 2212 
0:0:21:150, 2237 
0:0:21:166, 2243 
0:0:21:182, 2221 
0:0:21:198, 2174 
0:0:21:213, 2112 
0:0:21:229, 2058 
0:0:21:245, 1969 
0:0:21:261, 1857 
0:0:21:277, 1791 
0:0:21:292, 1681 
0:0:21:307, 1594 
0:0:21:322, 1536 
0:0:21:337, 1469 
0:0:21:353, 1400 
0:0:21:369, 1326 
0:0:21:385, 1264 
0:0:21:401, 1210 
0:0:21:417, 1173 
0:0:21:432, 1135 
0:0:21:447, 1104 
0:0:21:462, 1074 
0:0:21:478, 1053 
0:0:21:493, 1033 
0:0:21:509, 1013 
0:0:21:525, 995 
0:0:21:540, 979 
0:0:21:555, 969 
0:0:21:571, 977 
0:0:21:586, 1040 
0:0:21:602, 1254 
0:0:21:617, 1551 
0:0:21:633, 1939 
0:0:21:649, 2363 
0:0:21:665, 2890 
0:0:21:682, 3199 
0:0:21:698, 3500 
0:0:21:714, 3598 
0:0:21:730, 3596 
0:0:21:745, 3553 
0:0:21:760, 3455 
0:0:21:775, 3327 
0:0:21:790, 3190 
0:0:21:806, 3059 
0:0:21:821, 2888 
0:0:21:836, 2786 
0:0:21:851, 2651 
0:0:21:867, 2511 
0:0:21:882, 2383 
0:0:21:898, 2268 
0:0:21:913, 2195 
0:0:21:929, 2166 
0:0:21:945, 2164 
0:0:21:961, 2188 
0:0:21:978, 2218 
0:0:21:993, 2248 
0:0:22:8, 2260 
0:0:22:23, 2259 
0:0:22:38, 2249 
0:0:22:54, 2204 
0:0:22:70, 2150 
0:0:22:86, 2072 
0:0:22:102, 1979 
0:0:22:118, 1859 
0:0:22:134, 1759 
0:0:22:150, 1665 
0:0:22:166, 1237 
0:0:22:182, 1199 
0:0:22:198, 1159 
0:0:22:214, 1124 
0:0:22:230, 1107 
0:0:22:245, 1094 
0:0:22:260, 1080 
0:0:22:275, 1067 
0:0:22:290, 1051 
0:0:22:306, 1038 
0:0:22:321, 1019 
0:0:22:337, 1012 
0:0:22:353, 1050 
0:0:22:368, 1199 
0:0:22:385, 1536 
0:0:22:401, 2167 
0:0:22:417, 2686 
0:0:22:432, 3107 
0:0:22:448, 3352 
0:0:22:464, 3501 
0:0:22:479, 3529 
0:0:22:494, 3486 
0:0:22:510, 3350 
0:0:22:526, 3214 
0:0:22:542, 3079 
0:0:22:558, 2939 
0:0:22:574, 2795 
0:0:22:589, 2643 
0:0:22:605, 2484 
0:0:22:620, 2371 
0:0:22:635, 2239 
0:0:22:651, 2140 
0:0:22:667, 2090 
0:0:22:683, 2083 
0:0:22:698, 2094 
0:0:22:713, 2124 
0:0:22:728, 2164 
0:0:22:743, 2203 
0:0:22:759, 2243 
0:0:22:775, 2263 
0:0:22:790, 2251 
0:0:22:806, 2211 
0:0:22:821, 2156 
0:0:22:836, 2081 
0:0:22:851, 1998 
0:0:22:866, 1935 
0:0:22:882, 1845 
0:0:22:898, 1755 
0:0:22:914, 1672 
0:0:22:930, 1589 
0:0:22:945, 1516 
0:0:22:960, 1444 
0:0:22:976, 1378 
0:0:22:992, 1326 
0:0:23:7, 1282 
0:0:23:22, 1240 
0:0:23:38, 1200 
0:0:23:54, 1171 
0:0:23:69, 1150 
0:0:23:84, 1130 
0:0:23:100, 1099 
0:0:23:116, 1073 
0:0:23:132, 1059 
0:0:23:148, 1063 
0:0:23:164, 1126 
0:0:23:179, 1258 
0:0:23:194, 1493 
0:0:23:210, 1824 
0:0:23:226, 2204 
0:0:23:242, 2793 
0:0:23:258, 3137 
0:0:23:274, 3333 
0:0:23:290, 3411 
0:0:23:306, 3393 
0:0:23:322, 3304 
0:0:23:338, 3176 
0:0:23:354, 3040 
0:0:23:370, 2894 
0:0:23:386, 2746 
0:0:23:402, 2598 
0:0:23:417, 2446 
0:0:23:432, 2299 
0:0:23:448, 2172 
0:0:23:464, 2062 
0:0:23:480, 1985 
0:0:23:495, 1956 
0:0:23:511, 1951 
0:0:23:527, 1966 
0:0:23:542, 1999 
0:0:23:558, 2036 
0:0:23:574, 2080 
0:0:23:589, 2099 
0:0:23:605, 2120 
0:0:23:621, 2115 
0:0:23:637, 2088 
0:0:23:652, 2052 
0:0:23:667, 1982 
0:0:23:684, 1918 
0:0:23:700, 1834 
0:0:23:715, 1770 
0:0:23:731, 1705 
0:0:23:747, 1626 
0:0:23:762, 1554 
0:0:23:777, 1478 
0:0:23:793, 1405 
0:0:23:809, 1340 
0:0:23:825, 1281 
0:0:23:841, 1227 
0:0:23:856, 1178 
0:0:23:872, 1134 
0:0:23:887, 1103 
0:0:23:902, 1087 
0:0:23:918, 1064 
0:0:23:934, 1045 
0:0:23:950, 1214 
0:0:23:966, 1594 
0:0:23:982, 2128 
0:0:23:998, 2679 
0:0:24:14, 3231 
0:0:24:30, 3534 
0:0:24:46, 3642 
0:0:24:62, 3650 
0:0:24:78, 3585 
0:0:24:93, 3473 
0:0:24:109, 3340 
0:0:24:124, 3210 
0:0:24:139, 3090 
0:0:24:154, 2963 
0:0:24:169, 2830 
0:0:24:184, 2691 
0:0:24:200, 2545 
0:0:24:216, 2423 
0:0:24:231, 2334 
0:0:24:247, 2282 
0:0:24:263, 2269 
0:0:24:279, 2284 
0:0:24:294, 2305 
0:0:24:310, 2324 
0:0:24:326, 2335 
0:0:24:342, 2323 
0:0:24:357, 2291 
0:0:24:372, 2255 
0:0:24:388, 2190 
0:0:24:404, 2102 
0:0:24:420, 2022 
0:0:24:436, 1936 
0:0:24:452, 1860 
0:0:24:466, 1784 
0:0:24:482, 1722 
0:0:24:497, 1659 
0:0:24:513, 1596 
0:0:24:528, 1540 
0:0:24:543, 1484 
0:0:24:559, 1425 
0:0:24:575, 1378 
0:0:24:590, 1345 
0:0:24:605, 1307 
0:0:24:620, 1281 
0:0:24:636, 1260 
0:0:24:652, 1237 
0:0:24:668, 1219 
0:0:24:685, 1193 
0:0:24:701, 1177 
0:0:24:717, 1163 
0:0:24:733, 1157 
0:0:24:748, 1179 
0:0:24:764, 1257 
0:0:24:779, 1496 
0:0:24:795, 1904 
0:0:24:811, 2396 
0:0:24:826, 2848 
0:0:24:841, 3194 
0:0:24:856, 3425 
0:0:24:872, 3485 
0:0:24:887, 3460 
0:0:24:902, 3405 
0:0:24:917, 3340 
0:0:24:932, 3230 
0:0:24:947, 3114 
0:0:24:962, 3028 
0:0:24:978, 2886 
0:0:24:994, 2758 
0:0:25:10, 2633 
0:0:25:26, 2479 
0:0:25:41, 2394 
0:0:25:56, 2311 
0:0:25:71, 2264 
0:0:25:86, 2240 
0:0:25:102, 2246 
0:0:25:118, 2257 
0:0:25:133, 2272 
0:0:25:149, 2277 
0:0:25:164, 2259 
0:0:25:179, 2235 
0:0:25:195, 2190 
0:0:25:210, 2126 
0:0:25:225, 2055 
0:0:25:241, 1996 
0:0:25:257, 1897 
0:0:25:273, 1821 
0:0:25:288, 1760 
0:0:25:303, 1679 
0:0:25:318, 1602 
0:0:25:334, 1516 
0:0:25:350, 1464 
0:0:25:366, 1428 
0:0:25:381, 1397 
0:0:25:397, 1364 
0:0:25:413, 1335 
0:0:25:429, 1315 
0:0:25:445, 1284 
0:0:25:461, 1263 
0:0:25:476, 1244 
0:0:25:491, 1214 
0:0:25:507, 1187 
0:0:25:522, 1171 
0:0:25:537, 1168 
0:0:25:552, 1219 
0:0:25:568, 1337 
0:0:25:584, 1640 
0:0:25:599, 2182 
0:0:25:615, 2522 
0:0:25:631, 2904 
0:0:25:647, 3199 
0:0:25:662, 3314 
0:0:25:677, 2490 
0:0:25:693, 2394 
0:0:25:709, 2279 
0:0:25:725, 2213 
0:0:25:740, 2169 
0:0:25:755, 2148 
0:0:25:770, 2146 
0:0:25:785, 2167 
0:0:25:801, 2205 
0:0:25:817, 2233 
0:0:25:833, 2244 
0:0:25:848, 2239 
0:0:25:864, 2207 
0:0:25:880, 2159 
0:0:25:896, 2101 
0:0:25:911, 2017 
0:0:25:926, 1944 
0:0:25:942, 1890 
0:0:25:958, 1820 
0:0:25:974, 1765 
0:0:25:989, 1711 
0:0:26:4, 1658 
0:0:26:20, 1604 
0:0:26:35, 1531 
0:0:26:50, 1484 
0:0:26:65, 1425 
0:0:26:81, 1374 
0:0:26:96, 1335 
0:0:26:112, 1306 
0:0:26:128, 1282 
0:0:26:143, 1263 
0:0:26:158, 1246 
0:0:26:174, 1233 
0:0:26:189, 1219 
0:0:26:205, 1205 
0:0:26:220, 1206 
0:0:26:235, 1225 
0:0:26:250, 1321 
0:0:26:265, 1550 
0:0:26:280, 1904 
0:0:26:295, 2311 
0:0:26:311, 2683 
0:0:26:326, 2962 
0:0:26:341, 3149 
0:0:26:357, 3199 
0:0:26:373, 3168 
0:0:26:389, 3091 
0:0:26:404, 3021 
0:0:26:420, 2915 
0:0:26:436, 2794 
0:0:26:451, 2670 
0:0:26:466, 2535 
0:0:26:482, 2398 
0:0:26:497, 2276 
0:0:26:513, 2178 
0:0:26:529, 2121 
0:0:26:545, 2119 
0:0:26:560, 2139 
0:0:26:576, 2166 
0:0:26:592, 2212 
0:0:26:607, 2234 
0:0:26:622, 2243 
0:0:26:638, 2247 
0:0:26:654, 2228 
0:0:26:670, 2198 
0:0:26:685, 2161 
0:0:26:700, 2096 
0:0:26:716, 2043 
0:0:26:732, 1989 
0:0:26:748, 1892 
0:0:26:764, 1838 
0:0:26:780, 1767 
0:0:26:796, 1697 
0:0:26:812, 1639 
0:0:26:827, 1600 
0:0:26:842, 1545 
0:0:26:858, 1496 
0:0:26:874, 1454 
0:0:26:889, 1418 
0:0:26:905, 1396 
0:0:26:920, 1379 
0:0:26:935, 1354 
0:0:26:950, 1332 
0:0:26:965, 1311 
0:0:26:980, 1316 
0:0:26:996, 1370 
0:0:27:12, 1528 
0:0:27:28, 1821 
0:0:27:43, 2193 
0:0:27:59, 2477 
0:0:27:75, 2873 
0:0:27:90, 3105 
0:0:27:105, 3200 
0:0:27:120, 3216 
0:0:27:136, 3175 
0:0:27:151, 3103 
0:0:27:166, 3012 
0:0:27:182, 2871 
0:0:27:198, 2792 
0:0:27:214, 2684 
0:0:27:230, 2598 
0:0:27:246, 2484 
0:0:27:262, 2372 
0:0:27:277, 2284 
0:0:27:292, 2234 
0:0:27:308, 2210 
0:0:27:323, 2208 
0:0:27:339, 2226 
0:0:27:355, 2235 
0:0:27:371, 2238 
0:0:27:386, 2229 
0:0:27:401, 2047 
0:0:27:416, 1980 
0:0:27:431, 1910 
0:0:27:446, 1837 
0:0:27:462, 1769 
0:0:27:478, 1715 
0:0:27:494, 1631 
0:0:27:510, 1575 
0:0:27:526, 1520 
0:0:27:542, 1467 
0:0:27:558, 1430 
0:0:27:574, 1397 
0:0:27:590, 1370 
0:0:27:605, 1347 
0:0:27:620, 1332 
0:0:27:635, 1319 
0:0:27:650, 1300 
0:0:27:666, 1283 
0:0:27:682, 1273 
0:0:27:697, 1276 
0:0:27:713, 1322 
0:0:27:729, 1483 
0:0:27:744, 1772 
0:0:27:759, 2145 
0:0:27:775, 2526 
0:0:27:791, 2844 
0:0:27:807, 3097 
0:0:27:823, 3188 
0:0:27:839, 3225 
0:0:27:854, 3183 
0:0:27:869, 3134 
0:0:27:885, 3050 
0:0:27:900, 2967 
0:0:27:916, 2883 
0:0:27:932, 2797 
0:0:27:948, 2689 
0:0:27:964, 2588 
0:0:27:980, 2483 
0:0:27:997, 2365 
0:0:28:13, 2294 
0:0:28:29, 2256 
0:0:28:45, 2233 
0:0:28:61, 2227 
0:0:28:77, 2229 
0:0:28:92, 2223 
0:0:28:107, 2214 
0:0:28:122, 2196 
0:0:28:138, 2162 
0:0:28:154, 2125 
0:0:28:170, 2076 
0:0:28:185, 2017 
0:0:28:201, 1944 
0:0:28:216, 1893 
0:0:28:232, 1821 
0:0:28:248, 1753 
0:0:28:264, 1688 
0:0:28:280, 1641 
0:0:28:296, 1580 
0:0:28:312, 1535 
0:0:28:327, 1485 
0:0:28:342, 1445 
0:0:28:357, 1409 
0:0:28:373, 1384 
0:0:28:389, 1362 
0:0:28:405, 1349 
0:0:28:421, 1330 
0:0:28:437, 1309 
0:0:28:453, 1280 
0:0:28:469, 1263 
0:0:28:485, 1248 
0:0:28:501, 1253 
0:0:28:516, 1296 
0:0:28:532, 1447 
0:0:28:548, 1732 
0:0:28:563, 2010 
0:0:28:578, 2299 
0:0:28:593, 2655 
0:0:28:609, 2868 
0:0:28:625, 3045 
0:0:28:640, 3126 
0:0:28:655, 3159 
0:0:28:671, 3129 
0:0:28:687, 3086 
0:0:28:703, 3030 
0:0:28:719, 2948 
0:0:28:735, 2887 
0:0:28:751, 2808 
0:0:28:767, 2720 
0:0:28:783, 2651 
0:0:28:798, 2552 
0:0:28:813, 2443 
0:0:28:829, 2369 
0:0:28:845, 2287 
0:0:28:861, 2215 
0:0:28:877, 2193 
0:0:28:892, 2192 
0:0:28:907, 2194 
0:0:28:923, 2202 
0:0:28:939, 2201 
0:0:28:955, 2181 
0:0:28:971, 2150 
0:0:28:986, 2108 
0:0:29:2, 2057 
0:0:29:18, 2003 
0:0:29:33, 1945 
0:0:29:48, 1885 
0:0:29:63, 1823 
0:0:29:78, 1753 
0:0:29:93, 1686 
0:0:29:108, 1639 
0:0:29:123, 1426 
0:0:29:139, 1391 
0:0:29:155, 1355 
0:0:29:171, 1338 
0:0:29:187, 1322 
0:0:29:203, 1311 
0:0:29:219, 1300 
0:0:29:234, 1285 
0:0:29:250, 1262 
0:0:29:265, 1242 
0:0:29:280, 1222 
0:0:29:295, 1196 
0:0:29:311, 1176 
0:0:29:327, 1172 
0:0:29:343, 1194 
0:0:29:359, 1255 
0:0:29:375, 1507 
0:0:29:391, 1665 
0:0:29:407, 2050 
0:0:29:423, 2447 
0:0:29:439, 2773 
0:0:29:454, 3029 
0:0:29:469, 3130 
0:0:29:485, 3150 
0:0:29:500, 3114 
0:0:29:515, 3040 
0:0:29:531, 2959 
0:0:29:547, 2874 
0:0:29:563, 2782 
0:0:29:579, 2690 
0:0:29:595, 2588 
0:0:29:611, 2478 
0:0:29:627, 2369 
0:0:29:643, 2296 
0:0:29:659, 2237 
0:0:29:675, 2188 
0:0:29:691, 2159 
0:0:29:707, 2153 
0:0:29:723, 2156 
0:0:29:738, 2163 
0:0:29:753, 2171 
0:0:29:769, 2170 
0:0:29:785, 2162 
0:0:29:801, 2136 
0:0:29:817, 2098 
0:0:29:833, 2052 
0:0:29:849, 1992 
0:0:29:865, 1927 
0:0:29:881, 1854 
0:0:29:896, 1780 
0:0:29:912, 1728 
0:0:29:928, 1676 
0:0:29:944, 1629 
0:0:29:960, 1576 
0:0:29:975, 1533 
0:0:29:991, 1475 
0:0:30:7, 1423 
0:0:30:23, 1384 
0:0:30:39, 1360 
0:0:30:55, 1350 
0:0:30:71, 1332 
0:0:30:87, 1321 
0:0:30:102, 1313 
0:0:30:118, 1299 
0:0:30:134, 1284 
0:0:30:150, 1269 
0:0:30:165, 1252 
0:0:30:180, 1237 
0:0:30:196, 1225 
0:0:30:211, 1227 
0:0:30:226, 1262 
0:0:30:241, 1409 
0:0:30:257, 1789 
0:0:30:273, 2189 
0:0:30:289, 2568 
0:0:30:304, 2862 
0:0:30:320, 3080 
0:0:30:336, 3145 
0:0:30:352, 3128 
0:0:30:368, 3065 
0:0:30:384, 2979 
0:0:30:399, 2880 
0:0:30:415, 2780 
0:0:30:431, 2673 
0:0:30:446, 2553 
0:0:30:461, 2463 
0:0:30:477, 2346 
0:0:30:493, 2231 
0:0:30:509, 2141 
0:0:30:525, 2093 
0:0:30:541, 2078 
0:0:30:557, 2085 
0:0:30:573, 2110 
0:0:30:589, 2132 
0:0:30:604, 2138 
0:0:30:620, 2132 
0:0:30:636, 2108 
0:0:30:652, 2083 
0:0:30:667, 2056 
0:0:30:682, 2020 
0:0:30:698, 1977 
0:0:30:713, 1916 
0:0:30:729, 1899 
0:0:30:745, 1882 
0:0:30:761, 1882 
0:0:30:777, 1828 
0:0:30:792, 1791 
0:0:30:808, 1716 
0:0:30:823, 1665 
0:0:30:839, 1602 
0:0:30:855, 1534 
0:0:30:871, 1465 
0:0:30:887, 1419 
0:0:30:902, 1377 
0:0:30:917, 1351 
0:0:30:932, 1314 
0:0:30:947, 1258 
0:0:30:963, 1246 
0:0:30:979, 1240 
0:0:30:995, 1230 
0:0:31:11, 1209 
0:0:31:27, 1190 
0:0:31:43, 1178 
0:0:31:59, 1188 
0:0:31:75, 1240 
0:0:31:90, 1431 
0:0:31:106, 1776 
0:0:31:122, 2099 
0:0:31:138, 2436 
0:0:31:153, 2642 
0:0:31:168, 2825 
0:0:31:184, 2979 
0:0:31:199, 3185 
0:0:31:215, 3274 
0:0:31:231, 3310 
0:0:31:247, 3286 
0:0:31:263, 3234 
0:0:31:279, 3166 
0:0:31:295, 3092 
0:0:31:311, 3004 
0:0:31:327, 2939 
0:0:31:342, 2838 
0:0:31:357, 2734 
0:0:31:373, 2657 
0:0:31:388, 2578 
0:0:31:403, 2466 
0:0:31:419, 2360 
0:0:31:435, 2299 
0:0:31:451, 2232 
0:0:31:467, 2213 
0:0:31:483, 2212 
0:0:31:499, 2224 
0:0:31:514, 2233 
0:0:31:529, 2233 
0:0:31:545, 2217 
0:0:31:561, 2186 
0:0:31:577, 2155 
0:0:31:592, 2130 
0:0:31:608, 2070 
0:0:31:623, 2024 
0:0:31:638, 1976 
0:0:31:654, 1909 
0:0:31:669, 1854 
0:0:31:685, 1814 
0:0:31:700, 1753 
0:0:31:715, 1714 
0:0:31:731, 1660 
0:0:31:747, 1606 
0:0:31:763, 1536 
0:0:31:778, 1478 
0:0:31:794, 1451 
0:0:31:810, 1401 
0:0:31:826, 1372 
0:0:31:842, 1343 
0:0:31:857, 1322 
0:0:31:872, 1313 
0:0:31:888, 1296 
0:0:31:904, 1287 
0:0:31:919, 1279 
0:0:31:934, 1268 
0:0:31:949, 1255 
0:0:31:965, 1238 
0:0:31:981, 1221 
0:0:31:996, 1213 
0:0:32:12, 1204 
0:0:32:27, 1189 
0:0:32:42, 1194 
0:0:32:58, 1251 
0:0:32:74, 1489 
0:0:32:89, 1654 
0:0:32:105, 1957 
0:0:32:121, 2390 
0:0:32:137, 2785 
0:0:32:153, 3097 
0:0:32:169, 3248 
0:0:32:185, 3285 
0:0:32:200, 3248 
0:0:32:216, 3196 
0:0:32:232, 3108 
0:0:32:248, 3031 
0:0:32:263, 2929 
0:0:32:278, 2831 
0:0:32:294, 2726 
0:0:32:310, 2617 
0:0:32:325, 2501 
0:0:32:340, 2411 
0:0:32:356, 2305 
0:0:32:371, 2222 
0:0:32:387, 2166 
0:0:32:403, 2163 
0:0:32:419, 2161 
0:0:32:434, 2164 
0:0:32:449, 2174 
0:0:32:465, 2186 
0:0:32:481, 2180 
0:0:32:496, 2152 
0:0:32:512, 2111 
0:0:32:528, 2063 
0:0:32:543, 2001 
0:0:32:558, 1937 
0:0:32:573, 1867 
0:0:32:588, 1787 
0:0:32:603, 1711 
0:0:32:619, 1659 
0:0:32:635, 1588 
0:0:32:651, 1512 
0:0:32:667, 1443 
0:0:32:683, 1396 
0:0:32:699, 1337 
0:0:32:715, 1300 
0:0:32:731, 1258 
0:0:32:747, 1232 
0:0:32:763, 1211 
0:0:32:779, 1195 
0:0:32:794, 1184 
0:0:32:809, 1181 
0:0:32:825, 1306 
0:0:32:841, 1661 
0:0:32:857, 2126 
0:0:32:873, 2587 
0:0:32:889, 3031 
0:0:32:905, 3228 
0:0:32:921, 3334 
0:0:32:937, 3322 
0:0:32:953, 3245 
0:0:32:969, 3137 
0:0:32:985, 3013 
0:0:33:0, 2898 
0:0:33:16, 2780 
0:0:33:31, 2688 
0:0:33:46, 2560 
0:0:33:62, 2429 
0:0:33:78, 2274 
0:0:33:94, 2201 
0:0:33:110, 2116 
0:0:33:125, 2098 
0:0:33:141, 2108 
0:0:33:157, 2137 
0:0:33:173, 2172 
0:0:33:189, 2187 
0:0:33:204, 2179 
0:0:33:220, 2152 
0:0:33:235, 2130 
0:0:33:250, 2069 
0:0:33:265, 1999 
0:0:33:280, 1931 
0:0:33:296, 1853 
0:0:33:312, 1771 
0:0:33:328, 1673 
0:0:33:344, 1592 
0:0:33:360, 1537 
0:0:33:375, 1472 
0:0:33:391, 1401 
0:0:33:406, 1362 
0:0:33:422, 1338 
0:0:33:437, 1289 
0:0:33:452, 1241 
0:0:33:468, 1208 
0:0:33:484, 1190 
0:0:33:500, 1170 
0:0:33:515, 1165 
0:0:33:531, 1159 
0:0:33:546, 1154 
0:0:33:562, 1143 
0:0:33:578, 1133 
0:0:33:593, 1122 
0:0:33:609, 1112 
0:0:33:625, 1098 
0:0:33:641, 1093 
0:0:33:656, 1087 
0:0:33:671, 1081 
0:0:33:687, 1075 
0:0:33:703, 1056 
0:0:33:719, 1039 
0:0:33:734, 1034 
0:0:33:749, 1027 
0:0:33:764, 1021 
0:0:33:779, 1019 
0:0:33:795, 1027 
0:0:33:811, 1080 
0:0:33:826, 1278 
0:0:33:842, 1548 
0:0:33:858, 1900 
0:0:33:874, 2286 
0:0:33:890, 2757 
0:0:33:906, 3110 
0:0:33:922, 3316 
0:0:33:937, 3376 
0:0:33:953, 3413 
0:0:33:968, 3393 
0:0:33:983, 3335 
0:0:33:998, 3256 
0:0:34:13, 3165 
0:0:34:28, 3070 
0:0:34:43, 2938 
0:0:34:59, 2806 
0:0:34:75, 2674 
0:0:34:91, 2535 
0:0:34:107, 2426 
0:0:34:123, 2253 
0:0:34:139, 2165 
0:0:34:155, 2081 
0:0:34:171, 2043 
0:0:34:187, 2047 
0:0:34:203, 2076 
0:0:34:218, 2108 
0:0:34:234, 2137 
0:0:34:250, 2160 
0:0:34:266, 2158 
0:0:34:282, 2140 
0:0:34:297, 2103 
0:0:34:312, 2052 
0:0:34:327, 1980 
0:0:34:343, 1919 
0:0:34:359, 1806 
0:0:34:375, 1735 
0:0:34:391, 1625 
0:0:34:406, 1625 
0:0:34:422, 1563 
0:0:34:437, 1505 
0:0:34:452, 1488 
0:0:34:467, 1470 
0:0:34:482, 1453 
0:0:34:498, 1439 
0:0:34:513, 1424 
0:0:34:529, 1410 
0:0:34:545, 1395 
0:0:34:560, 1395 
0:0:34:576, 1380 
0:0:34:592, 1365 
0:0:34:608, 1335 
0:0:34:623, 1305 
0:0:34:638, 1289 
0:0:34:653, 1250 
0:0:34:668, 1226 
0:0:34:683, 1182 
0:0:34:699, 1162 
0:0:34:715, 1146 
0:0:34:731, 1134 
0:0:34:747, 1119 
0:0:34:763, 1100 
0:0:34:778, 1087 
0:0:34:794, 1079 
0:0:34:809, 1073 
0:0:34:824, 1067 
0:0:34:840, 1059 
0:0:34:856, 1043 
0:0:34:872, 1030 
0:0:34:888, 1020 
0:0:34:903, 1350 
0:0:34:918, 3216 
0:0:34:933, 3089 
0:0:34:949, 2994 
0:0:34:964, 2857 
0:0:34:979, 2711 
0:0:34:995, 2602 
0:0:35:11, 2464 
0:0:35:27, 2337 
0:0:35:42, 2241 
0:0:35:57, 2176 
0:0:35:73, 2140 
0:0:35:88, 2140 
0:0:35:104, 2160 
0:0:35:120, 2187 
0:0:35:135, 2202 
0:0:35:150, 2204 
0:0:35:166, 2192 
0:0:35:182, 2156 
0:0:35:197, 2099 
0:0:35:213, 2033 
0:0:35:229, 1977 
0:0:35:245, 1914 
0:0:35:261, 1829 
0:0:35:276, 1737 
0:0:35:291, 1643 
0:0:35:306, 1556 
0:0:35:322, 1475 
0:0:35:338, 1402 
0:0:35:353, 1336 
0:0:35:368, 1281 
0:0:35:383, 1244 
0:0:35:399, 1199 
0:0:35:415, 1163 
0:0:35:431, 1129 
0:0:35:447, 1101 
0:0:35:462, 1080 
0:0:35:478, 1067 
0:0:35:493, 1050 
0:0:35:509, 1036 
0:0:35:525, 1029 
0:0:35:541, 1025 
0:0:35:556, 1016 
0:0:35:571, 1011 
0:0:35:587, 1002 
0:0:35:603, 1003 
0:0:35:618, 1034 
0:0:35:633, 1126 
0:0:35:649, 1314 
0:0:35:664, 1741 
0:0:35:680, 2285 
0:0:35:695, 2804 
0:0:35:711, 3116 
0:0:35:727, 3373 
0:0:35:743, 3437 
0:0:35:759, 3549 
0:0:35:775, 3561 
0:0:35:791, 3505 
0:0:35:807, 3396 
0:0:35:823, 3266 
0:0:35:838, 3123 
0:0:35:853, 2981 
0:0:35:869, 2843 
0:0:35:885, 2700 
0:0:35:900, 2593 
0:0:35:916, 2458 
0:0:35:932, 2301 
0:0:35:948, 2225 
0:0:35:964, 2165 
0:0:35:980, 2113 
0:0:35:995, 2100 
0:0:36:10, 2131 
0:0:36:26, 2171 
0:0:36:42, 2196 
0:0:36:58, 2206 
0:0:36:73, 2191 
0:0:36:88, 2153 
0:0:36:104, 2101 
0:0:36:120, 2015 
0:0:36:136, 1931 
0:0:36:152, 1865 
0:0:36:167, 1799 
0:0:36:182, 1708 
0:0:36:197, 1622 
0:0:36:213, 1539 
0:0:36:228, 1483 
0:0:36:244, 1433 
0:0:36:260, 1354 
0:0:36:276, 1295 
0:0:36:292, 1245 
0:0:36:308, 1199 
0:0:36:323, 1165 
0:0:36:338, 1139 
0:0:36:354, 1119 
0:0:36:370, 1098 
0:0:36:385, 1086 
0:0:36:400, 1073 
0:0:36:416, 1059 
0:0:36:432, 1038 
0:0:36:448, 1023 
0:0:36:464, 1015 
0:0:36:480, 1055 
0:0:36:496, 1246 
0:0:36:512, 1587 
0:0:36:527, 2075 
0:0:36:542, 2713 
0:0:36:557, 3033 
0:0:36:573, 3304 
0:0:36:589, 3494 
0:0:36:605, 3501 
0:0:36:621, 3430 
0:0:36:637, 3334 
0:0:36:653, 3126 
0:0:36:669, 1291 
0:0:36:685, 1254 
0:0:36:701, 1221 
0:0:36:717, 1179 
0:0:36:733, 1162 
0:0:36:748, 1150 
0:0:36:763, 1134 
0:0:36:779, 1106 
0:0:36:794, 1090 
0:0:36:810, 1074 
0:0:36:825, 1060 
0:0:36:840, 1053 
0:0:36:856, 1044 
0:0:36:872, 1047 
0:0:36:887, 1094 
0:0:36:903, 1210 
0:0:36:919, 1526 
0:0:36:935, 2170 
0:0:36:951, 2856 
0:0:36:967, 3192 
0:0:36:982, 3552 
0:0:36:997, 3685 
0:0:37:12, 3703 
0:0:37:27, 3636 
0:0:37:42, 3514 
0:0:37:57, 3336 
0:0:37:73, 3196 
0:0:37:88, 3069 
0:0:37:104, 2913 
0:0:37:120, 2777 
0:0:37:136, 2636 
0:0:37:152, 2495 
0:0:37:167, 2372 
0:0:37:182, 2291 
0:0:37:197, 2253 
0:0:37:213, 2233 
0:0:37:228, 2246 
0:0:37:243, 2264 
0:0:37:258, 2304 
0:0:37:274, 2315 
0:0:37:290, 2305 
0:0:37:306, 2270 
0:0:37:322, 2208 
0:0:37:337, 2141 
0:0:37:353, 2060 
0:0:37:369, 1950 
0:0:37:385, 1886 
0:0:37:400, 1823 
0:0:37:415, 1738 
0:0:37:430, 1651 
0:0:37:446, 1543 
0:0:37:462, 1466 
0:0:37:477, 1418 
0:0:37:492, 1373 
0:0:37:507, 1331 
0:0:37:523, 1283 
0:0:37:539, 1232 
0:0:37:554, 1204 
0:0:37:570, 1175 
0:0:37:586, 1160 
0:0:37:602, 1135 
0:0:37:617, 1108 
0:0:37:633, 1086 
0:0:37:649, 1064 
0:0:37:665, 1052 
0:0:37:681, 1047 
0:0:37:696, 1058 
0:0:37:711, 1108 
0:0:37:726, 1231 
0:0:37:741, 1552 
0:0:37:757, 2167 
0:0:37:773, 2685 
0:0:37:789, 3016 
0:0:37:805, 3274 
0:0:37:821, 3511 
0:0:37:837, 3563 
0:0:37:853, 3526 
0:0:37:869, 3399 
0:0:37:885, 3266 
0:0:37:900, 3132 
0:0:37:915, 3031 
0:0:37:931, 2891 
0:0:37:946, 2758 
0:0:37:961, 2613 
0:0:37:976, 2508 
0:0:37:991, 2406 
0:0:38:7, 2341 
0:0:38:22, 2254 
0:0:38:37, 2184 
0:0:38:53, 2137 
0:0:38:68, 2110 
0:0:38:84, 2116 
0:0:38:99, 2145 
0:0:38:115, 2177 
0:0:38:131, 2205 
0:0:38:147, 2214 
0:0:38:163, 2198 
0:0:38:178, 2171 
0:0:38:193, 2108 
0:0:38:208, 2058 
0:0:38:224, 1979 
0:0:38:240, 1897 
0:0:38:256, 1813 
0:0:38:272, 1728 
0:0:38:288, 1646 
0:0:38:304, 1545 
0:0:38:320, 1468 
0:0:38:336, 1399 
0:0:38:352, 1322 
0:0:38:368, 1275 
0:0:38:384, 1089 
0:0:38:399, 1071 
0:0:38:414, 1063 
0:0:38:429, 1058 
0:0:38:444, 1057 
0:0:38:460, 1093 
0:0:38:476, 1228 
0:0:38:492, 1635 
0:0:38:508, 2126 
0:0:38:524, 2750 
0:0:38:540, 3134 
0:0:38:556, 3433 
0:0:38:572, 3488 
0:0:38:587, 3456 
0:0:38:602, 3364 
0:0:38:618, 3240 
0:0:38:633, 3136 
0:0:38:648, 2986 
0:0:38:663, 2837 
0:0:38:679, 2724 
0:0:38:695, 2605 
0:0:38:711, 2446 
0:0:38:727, 2335 
0:0:38:743, 2208 
0:0:38:759, 2114 
0:0:38:775, 2064 
0:0:38:790, 2054 
0:0:38:806, 2086 
0:0:38:822, 2133 
0:0:38:838, 2174 
0:0:38:853, 2198 
0:0:38:869, 2204 
0:0:38:884, 2184 
0:0:38:899, 2140 
0:0:38:915, 2078 
0:0:38:931, 2006 
0:0:38:946, 1926 
0:0:38:962, 1816 
0:0:38:978, 1734 
0:0:38:994, 1651 
0:0:39:10, 1546 
0:0:39:26, 1489 
0:0:39:42, 1412 
0:0:39:58, 1330 
0:0:39:74, 1282 
0:0:39:90, 1237 
0:0:39:106, 1204 
0:0:39:121, 1170 
0:0:39:136, 1139 
0:0:39:151, 1107 
0:0:39:167, 1082 
0:0:39:183, 1067 
0:0:39:198, 1051 
0:0:39:213, 1047 
0:0:39:229, 1050 
0:0:39:245, 1097 
0:0:39:261, 1339 
0:0:39:277, 1736 
0:0:39:293, 2257 
0:0:39:309, 2883 
0:0:39:325, 3254 
0:0:39:341, 3501 
0:0:39:356, 3566 
0:0:39:371, 3524 
0:0:39:386, 3427 
0:0:39:402, 3335 
0:0:39:418, 3201 
0:0:39:434, 3060 
0:0:39:450, 2922 
0:0:39:466, 2815 
0:0:39:482, 2667 
0:0:39:497, 2524 
0:0:39:512, 2390 
0:0:39:528, 2254 
0:0:39:544, 2180 
0:0:39:560, 2142 
0:0:39:576, 2153 
0:0:39:591, 2180 
0:0:39:607, 2231 
0:0:39:623, 2256 
0:0:39:639, 2257 
0:0:39:655, 2240 
0:0:39:671, 2202 
0:0:39:686, 2156 
0:0:39:701, 2098 
0:0:39:717, 2018 
0:0:39:733, 1975 
0:0:39:748, 1883 
0:0:39:763, 1791 
0:0:39:779, 1699 
0:0:39:795, 1633 
0:0:39:811, 1569 
0:0:39:826, 1497 
0:0:39:841, 1436 
0:0:39:857, 1390 
0:0:39:872, 1329 
0:0:39:888, 1280 
0:0:39:903, 1230 
0:0:39:919, 1199 
0:0:39:935, 1173 
0:0:39:951, 1152 
0:0:39:967, 1137 
0:0:39:983, 1126 
0:0:39:999, 1112 
0:0:40:15, 1104 
0:0:40:31, 1097 
0:0:40:47, 1122 
0:0:40:62, 1207 
0:0:40:77, 2719 
0:0:40:93, 3158 
0:0:40:108, 3541 
0:0:40:124, 3630 
0:0:40:140, 3599 
0:0:40:156, 3505 
0:0:40:172, 3389 
0:0:40:188, 3228 
0:0:40:203, 3109 
0:0:40:219, 2997 
0:0:40:234, 2875 
0:0:40:249, 2774 
0:0:40:265, 2635 
0:0:40:281, 2499 
0:0:40:296, 2386 
0:0:40:311, 2297 
0:0:40:326, 2272 
0:0:40:342, 2273 
0:0:40:358, 2289 
0:0:40:373, 2303 
0:0:40:389, 2298 
0:0:40:405, 2283 
0:0:40:421, 2243 
0:0:40:436, 2183 
0:0:40:451, 2105 
0:0:40:467, 2043 
0:0:40:483, 1953 
0:0:40:499, 1864 
0:0:40:515, 1751 
0:0:40:530, 1666 
0:0:40:545, 1591 
0:0:40:561, 1495 
0:0:40:577, 1425 
0:0:40:593, 1350 
0:0:40:609, 1297 
0:0:40:625, 1263 
0:0:40:641, 1220 
0:0:40:657, 1184 
0:0:40:672, 1170 
0:0:40:687, 1150 
0:0:40:702, 1132 
0:0:40:718, 1116 
0:0:40:734, 1099 
0:0:40:750, 1081 
0:0:40:765, 1067 
0:0:40:780, 1060 
0:0:40:796, 1108 
0:0:40:811, 1221 
0:0:40:826, 1519 
0:0:40:842, 2104 
0:0:40:857, 2492 
0:0:40:872, 2941 
0:0:40:887, 3286 
0:0:40:902, 3428 
0:0:40:918, 3491 
0:0:40:934, 3444 
0:0:40:949, 3353 
0:0:40:965, 3239 
0:0:40:981, 3116 
0:0:40:997, 2992 
0:0:41:12, 2868 
0:0:41:28, 2707 
0:0:41:44, 2566 
0:0:41:60, 2426 
0:0:41:76, 2300 
0:0:41:92, 2227 
0:0:41:107, 2172 
0:0:41:123, 2159 
0:0:41:139, 2174 
0:0:41:155, 2204 
0:0:41:171, 2223 
0:0:41:187, 2236 
0:0:41:202, 2235 
0:0:41:218, 2213 
0:0:41:233, 2168 
0:0:41:248, 2108 
0:0:41:263, 2035 
0:0:41:279, 1961 
0:0:41:296, 1875 
0:0:41:311, 1811 
0:0:41:327, 1726 
0:0:41:343, 1644 
0:0:41:359, 1567 
0:0:41:375, 1477 
0:0:41:391, 1422 
0:0:41:406, 1386 
0:0:41:422, 1333 
0:0:41:437, 1299 
0:0:41:452, 1264 
0:0:41:467, 1242 
0:0:41:482, 1214 
0:0:41:498, 1186 
0:0:41:514, 1162 
0:0:41:530, 1149 
0:0:41:545, 1131 
0:0:41:560, 1123 
0:0:41:576, 1136 
0:0:41:592, 1266 
0:0:41:607, 1538 
0:0:41:623, 1963 
0:0:41:639, 2446 
0:0:41:654, 2869 
0:0:41:669, 3108 
0:0:41:685, 3334 
0:0:41:701, 3388 
0:0:41:716, 3355 
0:0:41:731, 3293 
0:0:41:746, 3013 
0:0:41:762, 2882 
0:0:41:778, 2782 
0:0:41:794, 2607 
0:0:41:809, 2493 
0:0:41:824, 2339 
0:0:41:840, 2200 
0:0:41:856, 2059 
0:0:41:872, 2004 
0:0:41:887, 1998 
0:0:41:903, 2027 
0:0:41:919, 2077 
0:0:41:934, 2120 
0:0:41:949, 2141 
0:0:41:965, 2151 
0:0:41:981, 2135 
0:0:41:996, 2106 
0:0:42:11, 2049 
0:0:42:26, 2000 
0:0:42:42, 1925 
0:0:42:57, 1850 
0:0:42:72, 1779 
0:0:42:89, 1699 
0:0:42:104, 1596 
0:0:42:120, 1520 
0:0:42:136, 1429 
0:0:42:152, 1384 
0:0:42:167, 1335 
0:0:42:182, 1292 
0:0:42:198, 1251 
0:0:42:214, 1198 
0:0:42:230, 1169 
0:0:42:246, 1128 
0:0:42:261, 1099 
0:0:42:276, 1079 
0:0:42:292, 1063 
0:0:42:307, 1071 
0:0:42:323, 1153 
0:0:42:339, 1378 
0:0:42:355, 1790 
0:0:42:370, 2305 
0:0:42:386, 2799 
0:0:42:401, 3102 
0:0:42:416, 3409 
0:0:42:432, 3529 
0:0:42:447, 3518 
0:0:42:463, 3440 
0:0:42:479, 3336 
0:0:42:496, 3187 
0:0:42:512, 3068 
0:0:42:528, 2949 
0:0:42:544, 2821 
0:0:42:560, 2691 
0:0:42:576, 2553 
0:0:42:592, 2400 
0:0:42:607, 2312 
0:0:42:622, 2265 
0:0:42:637, 2241 
0:0:42:652, 2237 
0:0:42:668, 2245 
0:0:42:684, 2271 
0:0:42:700, 2287 
0:0:42:716, 2284 
0:0:42:731, 2264 
0:0:42:747, 2216 
0:0:42:763, 2173 
0:0:42:779, 2108 
0:0:42:795, 2018 
0:0:42:810, 1933 
0:0:42:826, 1853 
0:0:42:842, 1748 
0:0:42:858, 1684 
0:0:42:873, 1606 
0:0:42:888, 1530 
0:0:42:904, 1444 
0:0:42:919, 1392 
0:0:42:935, 1345 
0:0:42:951, 1298 
0:0:42:967, 1275 
0:0:42:983, 1248 
0:0:42:999, 1219 
0:0:43:15, 1197 
0:0:43:31, 1180 
0:0:43:47, 1155 
0:0:43:63, 1144 
0:0:43:79, 1156 
0:0:43:95, 1250 
0:0:43:110, 1473 
0:0:43:125, 1858 
0:0:43:140, 2330 
0:0:43:156, 2890 
0:0:43:172, 3139 
0:0:43:188, 3378 
0:0:43:203, 3452 
0:0:43:219, 3417 
0:0:43:235, 3359 
0:0:43:251, 3232 
0:0:43:267, 3120 
0:0:43:283, 3013 
0:0:43:298, 2871 
0:0:43:314, 2753 
0:0:43:330, 2627 
0:0:43:345, 2472 
0:0:43:360, 2367 
0:0:43:376, 2306 
0:0:43:392, 2252 
0:0:43:408, 2256 
0:0:43:424, 2268 
0:0:43:440, 2283 
0:0:43:455, 2279 
0:0:43:470, 2260 
0:0:43:486, 2218 
0:0:43:501, 2162 
0:0:43:517, 2104 
0:0:43:532, 2038 
0:0:43:547, 1964 
0:0:43:563, 1863 
0:0:43:578, 1800 
0:0:43:593, 1720 
0:0:43:609, 1638 
0:0:43:625, 1566 
0:0:43:641, 1500 
0:0:43:657, 1435 
0:0:43:672, 1382 
0:0:43:688, 1352 
0:0:43:704, 1303 
0:0:43:719, 1282 
0:0:43:734, 1259 
0:0:43:750, 1239 
0:0:43:766, 1221 
0:0:43:782, 1210 
0:0:43:797, 1189 
0:0:43:812, 1170 
0:0:43:827, 1149 
0:0:43:843, 1138 
0:0:43:858, 1174 
0:0:43:874, 1312 
0:0:43:890, 1625 
0:0:43:906, 2069 
0:0:43:921, 2536 
0:0:43:937, 2932 
0:0:43:953, 3239 
0:0:43:969, 3374 
0:0:43:985, 3374 
0:0:44:0, 3332 
0:0:44:16, 3269 
0:0:44:32, 3171 
0:0:44:47, 3053 
0:0:44:62, 2936 
0:0:44:78, 2791 
0:0:44:94, 2667 
0:0:44:110, 2533 
0:0:44:126, 2398 
0:0:44:142, 2286 
0:0:44:158, 2183 
0:0:44:174, 2148 
0:0:44:190, 2145 
0:0:44:205, 2164 
0:0:44:221, 2189 
0:0:44:236, 2212 
0:0:44:252, 2224 
0:0:44:268, 2223 
0:0:44:283, 2214 
0:0:44:298, 2191 
0:0:44:313, 2157 
0:0:44:329, 2100 
0:0:44:345, 2009 
0:0:44:361, 1928 
0:0:44:377, 1843 
0:0:44:393, 1759 
0:0:44:408, 1677 
0:0:44:423, 1600 
0:0:44:438, 1533 
0:0:44:454, 1471 
0:0:44:470, 1403 
0:0:44:486, 1356 
0:0:44:501, 1315 
0:0:44:516, 1281 
0:0:44:531, 1249 
0:0:44:547, 1228 
0:0:44:563, 1205 
0:0:44:579, 1179 
0:0:44:594, 1160 
0:0:44:610, 1139 
0:0:44:626, 1124 
0:0:44:642, 1111 
0:0:44:658, 1125 
0:0:44:674, 1204 
0:0:44:689, 1344 
0:0:44:704, 1674 
0:0:44:720, 2117 
0:0:44:735, 2568 
0:0:44:750, 2856 
0:0:44:765, 3206 
0:0:44:781, 3296 
0:0:44:797, 3291 
0:0:44:813, 3217 
0:0:44:829, 3113 
0:0:44:845, 2960 
0:0:44:861, 2832 
0:0:44:877, 2705 
0:0:44:893, 2603 
0:0:44:908, 2457 
0:0:44:924, 2349 
0:0:44:940, 2189 
0:0:44:956, 2105 
0:0:44:972, 2060 
0:0:44:987, 2051 
0:0:45:3, 2063 
0:0:45:19, 2095 
0:0:45:35, 2142 
0:0:45:51, 2177 
0:0:45:67, 2196 
0:0:45:83, 2188 
0:0:45:98, 2164 
0:0:45:114, 2122 
0:0:45:129, 2061 
0:0:45:145, 1991 
0:0:45:161, 1894 
0:0:45:177, 1807 
0:0:45:193, 1716 
0:0:45:209, 1624 
0:0:45:224, 1542 
0:0:45:239, 1486 
0:0:45:254, 1405 
0:0:45:269, 1357 
0:0:45:285, 1313 
0:0:45:300, 1280 
0:0:45:316, 1247 
0:0:45:332, 1221 
0:0:45:348, 1207 
0:0:45:364, 1192 
0:0:45:379, 1173 
0:0:45:394, 1155 
0:0:45:410, 1147 
0:0:45:426, 1147 
0:0:45:442, 1202 
0:0:45:457, 1375 
0:0:45:472, 1711 
0:0:45:488, 2169 
0:0:45:503, 2634 
0:0:45:518, 3014 
0:0:45:533, 3314 
0:0:45:549, 3408 
0:0:45:565, 3437 
0:0:45:581, 3384 
0:0:45:597, 3263 
0:0:45:612, 3210 
0:0:45:627, 3104 
0:0:45:643, 2993 
0:0:45:659, 2911 
0:0:45:675, 2827 
0:0:45:690, 2736 
0:0:45:705, 2642 
0:0:45:721, 2548 
0:0:45:737, 2458 
0:0:45:753, 2325 
0:0:45:769, 2253 
0:0:45:785, 2218 
0:0:45:801, 2216 
0:0:45:816, 2233 
0:0:45:831, 2244 
0:0:45:847, 2236 
0:0:45:863, 2215 
0:0:45:879, 2177 
0:0:45:895, 2120 
0:0:45:910, 2075 
0:0:45:925, 2005 
0:0:45:940, 1930 
0:0:45:955, 1848 
0:0:45:971, 1765 
0:0:45:987, 1708 
0:0:46:3, 1634 
0:0:46:19, 1581 
0:0:46:35, 1516 
0:0:46:51, 1467 
0:0:46:67, 1402 
0:0:46:83, 1355 
0:0:46:98, 1306 
0:0:46:114, 1280 
0:0:46:130, 1257 
0:0:46:145, 1229 
0:0:46:160, 1204 
0:0:46:175, 1190 
0:0:46:191, 1163 
0:0:46:207, 1140 
0:0:46:223, 1139 
0:0:46:239, 1198 
0:0:46:254, 1324 
0:0:46:269, 1635 
0:0:46:284, 2069 
0:0:46:299, 2638 
0:0:46:315, 2993 
0:0:46:331, 3290 
0:0:46:347, 3361 
0:0:46:363, 3343 
0:0:46:379, 3256 
0:0:46:394, 3156 
0:0:46:410, 3052 
0:0:46:426, 2973 
0:0:46:442, 2842 
0:0:46:457, 2730 
0:0:46:472, 2611 
0:0:46:488, 2486 
0:0:46:504, 2339 
0:0:46:520, 2251 
0:0:46:536, 2189 
0:0:46:552, 2179 
0:0:46:568, 2187 
0:0:46:584, 2205 
0:0:46:599, 2208 
0:0:46:615, 2202 
0:0:46:630, 2191 
0:0:46:645, 2158 
0:0:46:660, 2108 
0:0:46:676, 2065 
0:0:46:691, 1999 
0:0:46:707, 1946 
0:0:46:723, 1897 
0:0:46:739, 1845 
0:0:46:754, 1770 
0:0:46:770, 1579 
0:0:46:786, 1509 
0:0:46:801, 1425 
0:0:46:816, 1363 
0:0:46:832, 1315 
0:0:46:848, 1278 
0:0:46:863, 1253 
0:0:46:878, 1240 
0:0:46:894, 1226 
0:0:46:910, 1209 
0:0:46:925, 1193 
0:0:46:941, 1168 
0:0:46:957, 1143 
0:0:46:973, 1132 
0:0:46:989, 1147 
0:0:47:4, 1255 
0:0:47:19, 1507 
0:0:47:35, 2011 
0:0:47:51, 2352 
0:0:47:66, 2837 
0:0:47:81, 3127 
0:0:47:96, 3242 
0:0:47:112, 3260 
0:0:47:128, 3190 
0:0:47:143, 3119 
0:0:47:158, 3009 
0:0:47:174, 2896 
0:0:47:190, 2775 
0:0:47:205, 2656 
0:0:47:221, 2497 
0:0:47:237, 2394 
0:0:47:253, 2266 
0:0:47:268, 2162 
0:0:47:284, 2090 
0:0:47:300, 2066 
0:0:47:316, 2085 
0:0:47:331, 2117 
0:0:47:346, 2153 
0:0:47:361, 2171 
0:0:47:377, 2167 
0:0:47:393, 2141 
0:0:47:408, 2105 
0:0:47:424, 2070 
0:0:47:440, 2025 
0:0:47:455, 1974 
0:0:47:471, 1902 
0:0:47:487, 1824 
0:0:47:502, 1731 
0:0:47:518, 1657 
0:0:47:534, 1591 
0:0:47:550, 1532 
0:0:47:565, 1469 
0:0:47:580, 1415 
0:0:47:596, 1373 
0:0:47:612, 1338 
0:0:47:628, 1316 
0:0:47:644, 1293 
0:0:47:660, 1270 
0:0:47:676, 1257 
0:0:47:692, 1235 
0:0:47:707, 1223 
0:0:47:723, 1196 
0:0:47:739, 1183 
0:0:47:755, 1172 
0:0:47:771, 1167 
0:0:47:787, 1207 
0:0:47:802, 1343 
0:0:47:817, 1637 
0:0:47:833, 2166 
0:0:47:849, 2491 
0:0:47:865, 2860 
0:0:47:881, 3086 
0:0:47:897, 3253 
0:0:47:913, 3260 
0:0:47:929, 3199 
0:0:47:945, 3085 
0:0:47:961, 3009 
0:0:47:976, 2930 
0:0:47:992, 2847 
0:0:48:7, 2735 
0:0:48:23, 2648 
0:0:48:38, 2528 
0:0:48:53, 2369 
0:0:48:69, 2275 
0:0:48:85, 2174 
0:0:48:100, 2096 
0:0:48:116, 2084 
0:0:48:132, 2103 
0:0:48:148, 2132 
0:0:48:163, 2157 
0:0:48:179, 2172 
0:0:48:195, 2157 
0:0:48:211, 2127 
0:0:48:227, 2076 
0:0:48:243, 2011 
0:0:48:259, 1934 
0:0:48:274, 1869 
0:0:48:289, 1781 
0:0:48:304, 1678 
0:0:48:320, 1599 
0:0:48:336, 1513 
0:0:48:352, 1453 
0:0:48:368, 1384 
0:0:48:384, 1347 
0:0:48:400, 1325 
0:0:48:416, 1295 
0:0:48:432, 1268 
0:0:48:448, 1251 
0:0:48:464, 1228 
0:0:48:480, 1215 
0:0:48:496, 1195 
0:0:48:511, 1173 
0:0:48:526, 1155 
0:0:48:542, 1150 
0:0:48:558, 1204 
0:0:48:574, 1380 
0:0:48:590, 1713 
0:0:48:606, 2265 
0:0:48:622, 2595 
0:0:48:638, 2951 
0:0:48:654, 3223 
0:0:48:670, 3310 
0:0:48:686, 3338 
0:0:48:701, 3310 
0:0:48:717, 3257 
0:0:48:733, 3189 
0:0:48:748, 3083 
0:0:48:763, 2976 
0:0:48:779, 2845 
0:0:48:794, 2735 
0:0:48:810, 2619 
0:0:48:826, 2501 
0:0:48:842, 2347 
0:0:48:857, 2242 
0:0:48:872, 2173 
0:0:48:887, 2148 
0:0:48:902, 2132 
0:0:48:918, 2129 
0:0:48:934, 2132 
0:0:48:950, 2130 
0:0:48:966, 2123 
0:0:48:981, 2107 
0:0:48:996, 2076 
0:0:49:12, 2035 
0:0:49:28, 1969 
0:0:49:44, 1901 
0:0:49:59, 1829 
0:0:49:74, 1753 
0:0:49:90, 1671 
0:0:49:105, 1593 
0:0:49:121, 1513 
0:0:49:136, 1433 
0:0:49:151, 1374 
0:0:49:167, 1321 
0:0:49:183, 1288 
0:0:49:199, 1248 
0:0:49:214, 1222 
0:0:49:229, 1204 
0:0:49:244, 1183 
0:0:49:260, 1166 
0:0:49:276, 1147 
0:0:49:291, 1126 
0:0:49:306, 1112 
0:0:49:322, 1100 
0:0:49:338, 1126 
0:0:49:354, 1290 
0:0:49:370, 1595 
0:0:49:385, 2026 
0:0:49:401, 2372 
0:0:49:417, 2779 
0:0:49:433, 3160 
0:0:49:448, 3281 
0:0:49:463, 3305 
0:0:49:478, 3255 
0:0:49:494, 3192 
0:0:49:509, 3089 
0:0:49:525, 2950 
0:0:49:540, 2843 
0:0:49:556, 2734 
0:0:49:572, 2621 
0:0:49:587, 2499 
0:0:49:603, 2376 
0:0:49:619, 2272 
0:0:49:635, 2180 
0:0:49:651, 2148 
0:0:49:667, 2141 
0:0:49:682, 2150 
0:0:49:697, 2168 
0:0:49:712, 2185 
0:0:49:728, 2194 
0:0:49:744, 2194 
0:0:49:760, 2168 
0:0:49:776, 2129 
0:0:49:792, 2063 
0:0:49:808, 2002 
0:0:49:824, 1932 
0:0:49:840, 1834 
0:0:49:856, 1749 
0:0:49:872, 1664 
0:0:49:888, 1570 
0:0:49:903, 1516 
0:0:49:918, 1450 
0:0:49:933, 1401 
0:0:49:949, 1354 
0:0:49:965, 1313 
0:0:49:981, 1273 
0:0:49:996, 1244 
0:0:50:12, 1222 
0:0:50:28, 1200 
0:0:50:44, 1182 
0:0:50:59, 1161 
0:0:50:74, 1139 
0:0:50:90, 1127 
0:0:50:105, 1130 
0:0:50:121, 1454 
0:0:50:137, 1818 
0:0:50:152, 2256 
0:0:50:167, 2661 
0:0:50:183, 2971 
0:0:50:199, 3174 
0:0:50:215, 3224 
0:0:50:231, 3193 
0:0:50:246, 3108 
0:0:50:262, 3002 
0:0:50:278, 2895 
0:0:50:293, 2775 
0:0:50:308, 2650 
0:0:50:323, 2514 
0:0:50:338, 2409 
0:0:50:354, 2245 
0:0:50:369, 2131 
0:0:50:384, 2049 
0:0:50:400, 2012 
0:0:50:416, 2008 
0:0:50:432, 2024 
0:0:50:448, 2057 
0:0:50:464, 2093 
0:0:50:479, 2113 
0:0:50:494, 2117 
0:0:50:509, 2099 
0:0:50:525, 2071 
0:0:50:541, 2020 
0:0:50:556, 1951 
0:0:50:572, 1891 
0:0:50:587, 1809 
0:0:50:602, 1724 
0:0:50:618, 1640 
0:0:50:633, 1581 
0:0:50:649, 1523 
0:0:50:665, 1451 
0:0:50:680, 1401 
0:0:50:696, 1338 
0:0:50:712, 1299 
0:0:50:728, 1268 
0:0:50:744, 1230 
0:0:50:759, 1200 
0:0:50:775, 1178 
0:0:50:791, 1146 
0:0:50:806, 1122 
0:0:50:822, 1099 
0:0:50:838, 1082 
0:0:50:853, 1072 
0:0:50:868, 1068 
0:0:50:884, 1116 
0:0:50:905, 1116 
0:0:50:931, 1443 
0:0:50:947, 1862 
0:0:50:963, 2354 
0:0:50:979, 2796 
0:0:50:995, 3126 
0:0:51:10, 3345 
0:0:51:26, 3399 
0:0:51:42, 3355 
0:0:51:58, 3261 
0:0:51:74, 3150 
0:0:51:89, 3007 
0:0:51:105, 2903 
0:0:51:121, 2826 
0:0:51:136, 2740 
0:0:51:152, 2615 
0:0:51:167, 2490 
0:0:51:182, 2367 
0:0:51:198, 2247 
0:0:51:214, 2200 
0:0:51:230, 2169 
0:0:51:246, 2173 
0:0:51:262, 2193 
0:0:51:278, 2208 
0:0:51:294, 2209 
0:0:51:309, 2183 
0:0:51:324, 2150 
0:0:51:339, 2115 
0:0:51:354, 2052 
0:0:51:370, 1976 
0:0:51:386, 1874 
0:0:51:402, 1783 
0:0:51:418, 1693 
0:0:51:434, 1613 
0:0:51:450, 1516 
0:0:51:466, 1450 
0:0:51:482, 1393 
0:0:51:498, 1336 
0:0:51:513, 1280 
0:0:51:529, 1247 
0:0:51:545, 1229 
0:0:51:560, 1220 
0:0:51:575, 1208 
0:0:51:590, 1187 
0:0:51:606, 1170 
0:0:51:622, 1150 
0:0:51:637, 1132 
0:0:51:652, 1119 
0:0:51:667, 1105 
0:0:51:683, 1111 
0:0:51:699, 1187 
0:0:51:714, 1406 
0:0:51:730, 1692 
0:0:51:745, 2171 
0:0:51:761, 2536 
0:0:51:777, 3027 
0:0:51:792, 3299 
0:0:51:807, 3390 
0:0:51:823, 3350 
0:0:51:839, 3262 
0:0:51:855, 3131 
0:0:51:871, 3023 
0:0:51:886, 2884 
0:0:51:902, 2792 
0:0:51:918, 2669 
0:0:51:933, 2544 
0:0:51:949, 2403 
0:0:51:965, 2324 
0:0:51:981, 2239 
0:0:51:996, 2188 
0:0:52:11, 2170 
0:0:52:26, 2173 
0:0:52:41, 2186 
0:0:52:57, 2191 
0:0:52:73, 2181 
0:0:52:89, 2157 
0:0:52:104, 2101 
0:0:52:120, 2046 
0:0:52:136, 1962 
0:0:52:152, 1886 
0:0:52:168, 1823 
0:0:52:183, 1741 
0:0:52:198, 1667 
0:0:52:213, 1588 
0:0:52:229, 1511 
0:0:52:245, 1438 
0:0:52:260, 1370 
0:0:52:275, 1312 
0:0:52:291, 1260 
0:0:52:307, 1226 
0:0:52:322, 1195 
0:0:52:337, 1181 
0:0:52:353, 1172 
0:0:52:369, 1156 
0:0:52:384, 1147 
0:0:52:399, 1136 
0:0:52:414, 1119 
0:0:52:430, 1102 
0:0:52:446, 1087 
0:0:52:462, 1105 
0:0:52:478, 1253 
0:0:52:493, 1553 
0:0:52:509, 1999 
0:0:52:525, 2594 
0:0:52:541, 2986 
0:0:52:557, 3277 
0:0:52:572, 3392 
0:0:52:587, 3382 
0:0:52:602, 3316 
0:0:52:618, 3217 
0:0:52:634, 3068 
0:0:52:650, 2952 
0:0:52:666, 2861 
0:0:52:681, 2765 
0:0:52:697, 2636 
0:0:52:713, 2534 
0:0:52:728, 2431 
0:0:52:743, 2304 
0:0:52:759, 2194 
0:0:52:774, 2116 
0:0:52:789, 2079 
0:0:52:804, 2071 
0:0:52:820, 2093 
0:0:52:836, 2128 
0:0:52:852, 2147 
0:0:52:868, 2146 
0:0:52:883, 2121 
0:0:52:898, 2082 
0:0:52:914, 2024 
0:0:52:930, 1946 
0:0:52:946, 1868 
0:0:52:961, 1786 
0:0:52:976, 1707 
0:0:52:991, 1650 
0:0:53:6, 1572 
0:0:53:22, 1516 
0:0:53:38, 1427 
0:0:53:54, 1363 
0:0:53:70, 1309 
0:0:53:86, 1250 
0:0:53:102, 1220 
0:0:53:118, 1197 
0:0:53:133, 1175 
0:0:53:148, 1159 
0:0:53:164, 1140 
0:0:53:180, 1119 
0:0:53:195, 1097 
0:0:53:210, 1078 
0:0:53:226, 1060 
0:0:53:242, 1060 
0:0:53:258, 1145 
0:0:53:274, 1375 
0:0:53:290, 1773 
0:0:53:306, 2375 
0:0:53:322, 2799 
0:0:53:338, 3189 
0:0:53:354, 3305 
0:0:53:370, 3311 
0:0:53:386, 3267 
0:0:53:402, 3201 
0:0:53:418, 3049 
0:0:53:433, 2949 
0:0:53:448, 2812 
0:0:53:463, 2453 
0:0:53:479, 2300 
0:0:53:495, 2124 
0:0:53:511, 2017 
0:0:53:527, 1952 
0:0:53:543, 1948 
0:0:53:559, 1981 
0:0:53:575, 2026 
0:0:53:591, 2070 
0:0:53:606, 2093 
0:0:53:622, 2094 
0:0:53:637, 2086 
0:0:53:653, 2051 
0:0:53:668, 2009 
0:0:53:683, 1959 
0:0:53:699, 1901 
0:0:53:714, 1836 
0:0:53:730, 1770 
0:0:53:746, 1683 
0:0:53:761, 1574 
0:0:53:777, 1495 
0:0:53:793, 1421 
0:0:53:809, 1355 
0:0:53:825, 1295 
0:0:53:841, 1237 
0:0:53:856, 1192 
0:0:53:872, 1145 
0:0:53:887, 1117 
0:0:53:902, 1101 
0:0:53:917, 1087 
0:0:53:932, 1066 
0:0:53:947, 1046 
0:0:53:963, 1027 
0:0:53:978, 1017 
0:0:53:994, 1019 
0:0:54:9, 1042 
0:0:54:25, 1169 
0:0:54:41, 1379 
0:0:54:57, 1694 
0:0:54:73, 2214 
0:0:54:89, 2726 
0:0:54:105, 3195 
0:0:54:120, 3429 
0:0:54:135, 3487 
0:0:54:150, 3450 
0:0:54:166, 3385 
0:0:54:182, 3266 
0:0:54:198, 3167 
0:0:54:214, 3070 
0:0:54:230, 2930 
0:0:54:245, 2828 
0:0:54:261, 2690 
0:0:54:277, 2542 
0:0:54:293, 2392 
0:0:54:308, 2233 
0:0:54:324, 2137 
0:0:54:339, 2075 
0:0:54:354, 2053 
0:0:54:369, 2073 
0:0:54:384, 2115 
0:0:54:400, 2149 
0:0:54:416, 2178 
0:0:54:432, 2179 
0:0:54:448, 2157 
0:0:54:464, 2106 
0:0:54:480, 2035 
0:0:54:496, 1932 
0:0:54:511, 1835 
0:0:54:527, 1745 
0:0:54:543, 1631 
0:0:54:559, 1549 
0:0:54:575, 1473 
0:0:54:591, 1380 
0:0:54:607, 1321 
0:0:54:622, 1267 
0:0:54:637, 1240 
0:0:54:653, 1202 
0:0:54:669, 1161 
0:0:54:685, 1132 
0:0:54:701, 1121 
0:0:54:717, 1111 
0:0:54:733, 1102 
0:0:54:749, 1092 
0:0:54:765, 1072 
0:0:54:781, 1053 
0:0:54:797, 1043 
0:0:54:813, 1048 
0:0:54:829, 1104 
0:0:54:844, 1378 
0:0:54:859, 1687 
0:0:54:874, 2223 
0:0:54:889, 2758 
0:0:54:904, 3187 
0:0:54:920, 3504 
0:0:54:936, 3608 
0:0:54:952, 3595 
0:0:54:968, 3509 
0:0:54:984, 3388 
0:0:55:0, 3214 
0:0:55:17, 3073 
0:0:55:33, 2916 
0:0:55:49, 2784 
0:0:55:65, 2678 
0:0:55:80, 2570 
0:0:55:95, 2436 
0:0:55:111, 2292 
0:0:55:127, 2217 
0:0:55:143, 2176 
0:0:55:159, 2173 
0:0:55:175, 2192 
0:0:55:191, 2210 
0:0:55:206, 2222 
0:0:55:222, 2206 
0:0:55:238, 2171 
0:0:55:254, 2116 
0:0:55:270, 2066 
0:0:55:286, 1995 
0:0:55:302, 1912 
0:0:55:317, 1827 
0:0:55:332, 1740 
0:0:55:347, 1630 
0:0:55:363, 1549 
0:0:55:379, 1448 
0:0:55:395, 1379 
0:0:55:410, 1334 
0:0:55:426, 1281 
0:0:55:442, 1239 
0:0:55:458, 1190 
0:0:55:474, 1164 
0:0:55:490, 1140 
0:0:55:505, 1117 
0:0:55:521, 1086 
0:0:55:537, 1066 
0:0:55:552, 1042 
0:0:55:567, 1025 
0:0:55:583, 1011 
0:0:55:599, 1020 
0:0:55:615, 1092 
0:0:55:631, 1301 
0:0:55:647, 1705 
0:0:55:662, 2240 
0:0:55:678, 2512 
0:0:55:694, 2987 
0:0:55:709, 3252 
0:0:55:724, 3494 
0:0:55:739, 3542 
0:0:55:755, 3503 
0:0:55:771, 3413 
0:0:55:786, 3290 
0:0:55:802, 3120 
0:0:55:818, 2989 
0:0:55:834, 2829 
0:0:55:850, 2698 
0:0:55:866, 2552 
0:0:55:882, 2405 
0:0:55:898, 2300 
0:0:55:913, 2194 
0:0:55:929, 2142 
0:0:55:945, 2110 
0:0:55:961, 2120 
0:0:55:977, 2154 
0:0:55:993, 2185 
0:0:56:9, 2193 
0:0:56:24, 2180 
0:0:56:39, 2144 
0:0:56:54, 2099 
0:0:56:70, 2018 
0:0:56:86, 1960 
0:0:56:102, 1880 
0:0:56:118, 1790 
0:0:56:134, 1700 
0:0:56:150, 1586 
0:0:56:166, 1508 
0:0:56:182, 1435 
0:0:56:198, 1349 
0:0:56:213, 1296 
0:0:56:229, 1243 
0:0:56:245, 1196 
0:0:56:260, 1156 
0:0:56:275, 1125 
0:0:56:291, 1111 
0:0:56:307, 1099 
0:0:56:323, 1082 
0:0:56:339, 1061 
0:0:56:355, 1045 
0:0:56:370, 1029 
0:0:56:385, 1028 
0:0:56:401, 1057 
0:0:56:417, 1184 
0:0:56:433, 1486 
0:0:56:449, 2081 
0:0:56:465, 2599 
0:0:56:481, 3031 
0:0:56:496, 3289 
0:0:56:512, 3452 
0:0:56:528, 3463 
0:0:56:544, 3377 
0:0:56:560, 3212 
0:0:56:575, 3069 
0:0:56:590, 2927 
0:0:56:605, 2782 
0:0:56:621, 2637 
0:0:56:636, 2529 
0:0:56:651, 2376 
0:0:56:667, 2265 
0:0:56:682, 2169 
0:0:56:697, 2068 
0:0:56:713, 2016 
0:0:56:728, 1989 
0:0:56:743, 1992 
0:0:56:759, 2036 
0:0:56:775, 2075 
0:0:56:790, 2123 
0:0:56:806, 2147 
0:0:56:822, 2157 
0:0:56:838, 2156 
0:0:56:854, 2129 
0:0:56:870, 2075 
0:0:56:885, 2008 
0:0:56:901, 1921 
0:0:56:917, 1849 
0:0:56:933, 1750 
0:0:56:949, 1654 
0:0:56:964, 1570 
0:0:56:979, 1489 
0:0:56:994, 1411 
0:0:57:10, 1344 
0:0:57:26, 1271 
0:0:57:42, 1222 
0:0:57:58, 1175 
0:0:57:73, 1144 
0:0:57:88, 1123 
0:0:57:103, 1108 
0:0:57:119, 1084 
0:0:57:135, 1069 
0:0:57:151, 1052 
0:0:57:166, 1040 
0:0:57:182, 1039 
0:0:57:197, 1047 
0:0:57:213, 1144 
0:0:57:228, 1313 
0:0:57:244, 1830 
0:0:57:260, 2362 
0:0:57:276, 2858 
0:0:57:292, 3232 
0:0:57:307, 3495 
0:0:57:323, 3527 
0:0:57:339, 3489 
0:0:57:355, 3386 
0:0:57:371, 3217 
0:0:57:387, 3068 
0:0:57:403, 2919 
0:0:57:419, 2770 
0:0:57:434, 2616 
0:0:57:449, 2468 
0:0:57:464, 2357 
0:0:57:480, 2187 
0:0:57:496, 2080 
0:0:57:512, 2013 
0:0:57:527, 2006 
0:0:57:543, 2028 
0:0:57:559, 2088 
0:0:57:575, 2132 
0:0:57:591, 2150 
0:0:57:606, 2141 
0:0:57:622, 2120 
0:0:57:638, 2086 
0:0:57:654, 2026 
0:0:57:669, 1950 
0:0:57:684, 1887 
0:0:57:699, 1821 
0:0:57:715, 1730 
0:0:57:731, 1657 
0:0:57:747, 1559 
0:0:57:762, 1474 
0:0:57:778, 1396 
0:0:57:794, 1327 
0:0:57:809, 1258 
0:0:57:825, 1212 
0:0:57:840, 1177 
0:0:57:856, 1133 
0:0:57:871, 1100 
0:0:57:886, 1072 
0:0:57:901, 1059 
0:0:57:917, 1049 
0:0:57:932, 1038 
0:0:57:948, 1028 
0:0:57:964, 1017 
0:0:57:980, 1021 
0:0:57:995, 1061 
0:0:58:10, 1231 
0:0:58:26, 1490 
0:0:58:42, 1995 
0:0:58:57, 2420 
0:0:58:72, 2941 
0:0:58:88, 3330 
0:0:58:104, 3583 
0:0:58:120, 3646 
0:0:58:135, 3626 
0:0:58:150, 3537 
0:0:58:165, 3418 
0:0:58:181, 3249 
0:0:58:197, 3112 
0:0:58:213, 2985 
0:0:58:229, 2857 
0:0:58:245, 2718 
0:0:58:261, 2541 
0:0:58:277, 2409 
0:0:58:293, 2297 
0:0:58:308, 2225 
0:0:58:324, 2191 
0:0:58:340, 2184 
0:0:58:356, 2206 
0:0:58:371, 2234 
0:0:58:386, 2244 
0:0:58:403, 2243 
0:0:58:419, 2217 
0:0:58:435, 2165 
0:0:58:451, 2074 
0:0:58:467, 1986 
0:0:58:483, 1893 
0:0:58:499, 1807 
0:0:58:514, 1701 
0:0:58:529, 1622 
0:0:58:545, 1565 
0:0:58:561, 1489 
0:0:58:577, 1389 
0:0:58:593, 1316 
0:0:58:609, 1274 
0:0:58:624, 1224 
0:0:58:640, 1183 
0:0:58:656, 1151 
0:0:58:672, 1122 
0:0:58:688, 1094 
0:0:58:703, 1073 
0:0:58:719, 1052 
0:0:58:734, 1035 
0:0:58:749, 1030 
0:0:58:765, 1031 
0:0:58:781, 1123 
0:0:58:797, 1373 
0:0:58:812, 1811 
0:0:58:828, 2489 
0:0:58:843, 2969 
0:0:58:858, 3306 
0:0:58:874, 3518 
0:0:58:890, 3545 
0:0:58:906, 3478 
0:0:58:922, 3326 
0:0:58:937, 3193 
0:0:58:952, 3126 
0:0:58:968, 2991 
0:0:58:983, 2854 
0:0:58:999, 2720 
0:0:59:14, 2575 
0:0:59:30, 2403 
0:0:59:46, 2278 
0:0:59:62, 2160 
0:0:59:77, 2122 
0:0:59:92, 2099 
0:0:59:108, 2118 
0:0:59:124, 2151 
0:0:59:140, 2176 
0:0:59:156, 2188 
0:0:59:172, 2183 
0:0:59:188, 2158 
0:0:59:203, 2114 
0:0:59:218, 2050 
0:0:59:234, 1970 
0:0:59:250, 1857 
0:0:59:265, 1769 
0:0:59:280, 1687 
0:0:59:295, 1606 
0:0:59:311, 1526 
0:0:59:326, 1438 
0:0:59:342, 1368 
0:0:59:357, 1305 
0:0:59:373, 1263 
0:0:59:389, 1207 
0:0:59:404, 1184 
0:0:59:420, 1154 
0:0:59:436, 1137 
0:0:59:452, 1117 
0:0:59:467, 1094 
0:0:59:482, 1069 
0:0:59:498, 1049 
0:0:59:513, 1037 
0:0:59:529, 1066 
0:0:59:545, 1172 
0:0:59:559, 1442 
0:0:59:574, 1765 
0:0:59:591, 2406 
0:0:59:606, 2879 
0:0:59:622, 3152 
0:0:59:638, 3409 
0:0:59:654, 3470 
0:0:59:670, 3465 
0:0:59:686, 3414 
0:0:59:701, 3337 
0:0:59:717, 3246 
0:0:59:733, 3140 
0:0:59:749, 3031 
0:0:59:765, 2852 
0:0:59:780, 2742 
0:0:59:795, 2591 
0:0:59:810, 2480 
0:0:59:826, 2366 
0:0:59:841, 2256 
0:0:59:857, 2162 
0:0:59:873, 2067 
0:0:59:888, 2009 
0:0:59:904, 1999 
0:0:59:920, 2030 
0:0:59:936, 2078 
0:0:59:951, 2128 
0:0:59:966, 2148 
0:0:59:981, 2168 
0:0:59:996, 2164 
0:1:0:11, 2140 
0:1:0:26, 2091 
0:1:0:41, 2026 
0:1:0:57, 1949 
0:1:0:72, 1869 
0:1:0:88, 1756 
0:1:0:104, 1663 
0:1:0:120, 1558 
0:1:0:136, 1482 
0:1:0:151, 1410 
0:1:0:167, 1263 
0:1:0:183, 1202 
0:1:0:199, 1170 
0:1:0:215, 1127 
0:1:0:231, 1110 
0:1:0:246, 1086 
0:1:0:261, 1061 
0:1:0:277, 1045 
0:1:0:293, 1031 
0:1:0:308, 1028 
0:1:0:324, 1052 
0:1:0:340, 1164 
0:1:0:356, 1450 
0:1:0:372, 2042 
0:1:0:388, 2578 
0:1:0:404, 2932 
0:1:0:420, 3210 
0:1:0:436, 3482 
0:1:0:452, 3554 
0:1:0:468, 3526 
0:1:0:483, 3429 
0:1:0:498, 3299 
0:1:0:514, 3160 
0:1:0:530, 2982 
0:1:0:545, 2849 
0:1:0:561, 2673 
0:1:0:577, 2525 
0:1:0:593, 2379 
0:1:0:608, 2278 
0:1:0:624, 2172 
0:1:0:640, 2123 
0:1:0:656, 2094 
0:1:0:672, 2104 
0:1:0:688, 2127 
0:1:0:704, 2152 
0:1:0:719, 2176 
0:1:0:734, 2189 
0:1:0:749, 2202 
0:1:0:765, 2187 
0:1:0:781, 2151 
0:1:0:796, 2094 
0:1:0:812, 2025 
0:1:0:827, 1944 
0:1:0:842, 1856 
0:1:0:858, 1763 
0:1:0:874, 1656 
0:1:0:890, 1572 
0:1:0:905, 1513 
0:1:0:921, 1439 
0:1:0:937, 1364 
0:1:0:952, 1301 
0:1:0:967, 1248 
0:1:0:983, 1201 
0:1:0:999, 1169 
0:1:1:15, 1146 
0:1:1:31, 1120 
0:1:1:46, 1109 
0:1:1:62, 1094 
0:1:1:78, 1072 
0:1:1:94, 1050 
0:1:1:109, 1039 
0:1:1:125, 1060 
0:1:1:141, 1208 
0:1:1:157, 1521 
0:1:1:173, 2011 
0:1:1:188, 2423 
0:1:1:203, 2922 
0:1:1:219, 3209 
0:1:1:235, 3485 
0:1:1:251, 3576 
0:1:1:267, 3570 
0:1:1:283, 3489 
0:1:1:299, 3366 
0:1:1:315, 3200 
0:1:1:331, 3070 
0:1:1:347, 2923 
0:1:1:363, 2794 
0:1:1:379, 2652 
0:1:1:395, 2509 
0:1:1:411, 2377 
0:1:1:426, 2299 
0:1:1:441, 2234 
0:1:1:457, 2209 
0:1:1:473, 2204 
0:1:1:489, 2234 
0:1:1:504, 2256 
0:1:1:520, 2265 
0:1:1:535, 2250 
0:1:1:550, 2212 
0:1:1:566, 2164 
0:1:1:582, 2083 
0:1:1:598, 2001 
0:1:1:614, 1939 
0:1:1:630, 1876 
0:1:1:646, 1809 
0:1:1:661, 1742 
0:1:1:676, 1659 
0:1:1:692, 1576 
0:1:1:707, 1500 
0:1:1:723, 1432 
0:1:1:739, 1366 
0:1:1:755, 1307 
0:1:1:771, 1259 
0:1:1:787, 1221 
0:1:1:803, 1191 
0:1:1:819, 1165 
0:1:1:834, 1150 
0:1:1:850, 1102 
0:1:1:866, 1080 
0:1:1:882, 1057 
0:1:1:897, 1049 
0:1:1:912, 1089 
0:1:1:928, 1253 
0:1:1:944, 1605 
0:1:1:960, 2231 
0:1:1:976, 2615 
0:1:1:992, 3044 
0:1:2:8, 3373 
0:1:2:24, 3484 
0:1:2:40, 3495 
0:1:2:56, 3447 
0:1:2:72, 3346 
0:1:2:88, 3192 
0:1:2:104, 3068 
0:1:2:119, 2945 
0:1:2:134, 2822 
0:1:2:149, 2687 
0:1:2:164, 2551 
0:1:2:179, 2423 
0:1:2:195, 2304 
0:1:2:211, 2208 
0:1:2:227, 2162 
0:1:2:243, 2135 
0:1:2:259, 2128 
0:1:2:275, 2144 
0:1:2:291, 2168 
0:1:2:306, 2187 
0:1:2:322, 2197 
0:1:2:338, 2182 
0:1:2:354, 2149 
0:1:2:369, 2079 
0:1:2:384, 2022 
0:1:2:400, 1943 
0:1:2:416, 1857 
0:1:2:432, 1763 
0:1:2:448, 1693 
0:1:2:464, 1600 
0:1:2:480, 1517 
0:1:2:496, 1440 
0:1:2:511, 1357 
0:1:2:527, 1301 
0:1:2:542, 1247 
0:1:2:558, 1202 
0:1:2:574, 1171 
0:1:2:590, 1143 
0:1:2:605, 1125 
0:1:2:620, 1110 
0:1:2:636, 1097 
0:1:2:652, 1075 
0:1:2:667, 1060 
0:1:2:683, 1039 
0:1:2:699, 1027 
0:1:2:715, 1056 
0:1:2:731, 1192 
0:1:2:747, 1502 
0:1:2:763, 2101 
0:1:2:779, 2606 
0:1:2:795, 3023 
0:1:2:810, 3369 
0:1:2:826, 3445 
0:1:2:841, 3424 
0:1:2:856, 3360 
0:1:2:872, 3245 
0:1:2:888, 3079 
0:1:2:903, 2938 
0:1:2:919, 2800 
0:1:2:935, 2654 
0:1:2:951, 2459 
0:1:2:966, 2317 
0:1:2:982, 2191 
0:1:2:998, 2106 
0:1:3:13, 2060 
0:1:3:29, 2058 
0:1:3:45, 2100 
0:1:3:61, 2137 
0:1:3:76, 2169 
0:1:3:91, 2197 
0:1:3:107, 2200 
0:1:3:123, 2181 
0:1:3:139, 2141 
0:1:3:154, 2097 
0:1:3:169, 2024 
0:1:3:185, 1938 
0:1:3:201, 1848 
0:1:3:216, 1767 
0:1:3:232, 1709 
0:1:3:248, 1611 
0:1:3:264, 1526 
0:1:3:280, 1465 
0:1:3:296, 1377 
0:1:3:312, 1313 
0:1:3:327, 1265 
0:1:3:342, 1224 
0:1:3:358, 1188 
0:1:3:374, 1151 
0:1:3:390, 1126 
0:1:3:406, 1108 
0:1:3:422, 1094 
0:1:3:438, 1075 
0:1:3:454, 1056 
0:1:3:470, 1055 
0:1:3:485, 1070 
0:1:3:501, 1149 
0:1:3:516, 1789 
0:1:3:532, 2296 
0:1:3:547, 2889 
0:1:3:562, 3222 
0:1:3:578, 3437 
0:1:3:594, 3474 
0:1:3:610, 3408 
0:1:3:626, 3330 
0:1:3:642, 3233 
0:1:3:658, 3093 
0:1:3:674, 2956 
0:1:3:690, 2853 
0:1:3:706, 2749 
0:1:3:721, 2608 
0:1:3:736, 2457 
0:1:3:752, 2313 
0:1:3:768, 2164 
0:1:3:783, 2087 
0:1:3:798, 2054 
0:1:3:814, 2062 
0:1:3:830, 2099 
0:1:3:846, 2140 
0:1:3:862, 2170 
0:1:3:878, 2174 
0:1:3:894, 2165 
0:1:3:909, 2112 
0:1:3:925, 2046 
0:1:3:941, 1973 
0:1:3:957, 1864 
0:1:3:972, 1768 
0:1:3:988, 1674 
0:1:4:4, 1582 
0:1:4:20, 1499 
0:1:4:35, 1424 
0:1:4:50, 1353 
0:1:4:66, 1284 
0:1:4:82, 1236 
0:1:4:98, 1189 
0:1:4:113, 1151 
0:1:4:129, 1119 
0:1:4:145, 1094 
0:1:4:161, 1068 
0:1:4:177, 1050 
0:1:4:193, 1038 
0:1:4:209, 1025 
0:1:4:225, 1016 
0:1:4:241, 1033 
0:1:4:256, 1125 
0:1:4:271, 1368 
0:1:4:287, 1799 
0:1:4:303, 2342 
0:1:4:318, 2738 
0:1:4:334, 3254 
0:1:4:350, 3523 
0:1:4:366, 3597 
0:1:4:382, 3547 
0:1:4:398, 3472 
0:1:4:414, 3346 
0:1:4:430, 3208 
0:1:4:446, 3073 
0:1:4:462, 2924 
0:1:4:478, 2807 
0:1:4:493, 2676 
0:1:4:508, 2571 
0:1:4:524, 2400 
0:1:4:540, 2284 
0:1:4:556, 2201 
0:1:4:572, 2173 
0:1:4:587, 2175 
0:1:4:602, 2192 
0:1:4:618, 2208 
0:1:4:634, 2218 
0:1:4:650, 2213 
0:1:4:666, 2184 
0:1:4:682, 2142 
0:1:4:698, 2097 
0:1:4:714, 2043 
0:1:4:729, 1985 
0:1:4:744, 1922 
0:1:4:760, 1838 
0:1:4:776, 1726 
0:1:4:792, 1645 
0:1:4:807, 1537 
0:1:4:823, 1455 
0:1:4:839, 1375 
0:1:4:854, 1290 
0:1:4:869, 1239 
0:1:4:885, 1196 
0:1:4:901, 1160 
0:1:4:916, 1147 
0:1:4:932, 1128 
0:1:4:948, 1104 
0:1:4:963, 1078 
0:1:4:978, 1050 
0:1:4:994, 1030 
0:1:5:10, 1021 
0:1:5:26, 1029 
0:1:5:42, 1107 
0:1:5:58, 1421 
0:1:5:74, 1870 
0:1:5:90, 2536 
0:1:5:106, 2997 
0:1:5:122, 3351 
0:1:5:138, 3516 
0:1:5:154, 3543 
0:1:5:170, 3352 
0:1:5:186, 3192 
0:1:5:201, 3062 
0:1:5:216, 2930 
0:1:5:232, 2798 
0:1:5:248, 2654 
0:1:5:264, 2478 
0:1:5:280, 2375 
0:1:5:296, 2248 
0:1:5:312, 2144 
0:1:5:328, 2113 
0:1:5:344, 2102 
0:1:5:360, 2125 
0:1:5:375, 2155 
0:1:5:390, 2178 
0:1:5:406, 2189 
0:1:5:422, 2167 
0:1:5:437, 2141 
0:1:5:452, 2086 
0:1:5:467, 2011 
0:1:5:483, 1904 
0:1:5:499, 1812 
0:1:5:515, 1726 
0:1:5:531, 1637 
0:1:5:547, 1559 
0:1:5:562, 1484 
0:1:5:578, 1387 
0:1:5:594, 1321 
0:1:5:609, 1261 
0:1:5:625, 1209 
0:1:5:640, 1169 
0:1:5:655, 1151 
0:1:5:670, 1130 
0:1:5:685, 1101 
0:1:5:701, 1082 
0:1:5:716, 1060 
0:1:5:731, 1049 
0:1:5:747, 1037 
0:1:5:763, 1022 
0:1:5:779, 1010 
0:1:5:795, 1055 
0:1:5:810, 1223 
0:1:5:826, 1564 
0:1:5:842, 2185 
0:1:5:858, 2695 
0:1:5:874, 3168 
0:1:5:890, 3401 
0:1:5:905, 3455 
0:1:5:920, 3426 
0:1:5:936, 3334 
0:1:5:951, 3240 
0:1:5:967, 3097 
0:1:5:982, 2952 
0:1:5:997, 2803 
0:1:6:13, 2654 
0:1:6:28, 2541 
0:1:6:43, 2424 
0:1:6:59, 2273 
0:1:6:74, 2144 
0:1:6:89, 2043 
0:1:6:105, 1990 
0:1:6:120, 1986 
0:1:6:135, 2016 
0:1:6:150, 2057 
0:1:6:165, 2085 
0:1:6:180, 2109 
0:1:6:195, 2117 
0:1:6:210, 2105 
0:1:6:226, 2079 
0:1:6:242, 2027 
0:1:6:258, 1936 
0:1:6:274, 1875 
0:1:6:290, 1793 
0:1:6:306, 1705 
0:1:6:321, 1614 
0:1:6:337, 1535 
0:1:6:353, 1459 
0:1:6:368, 1404 
0:1:6:383, 1355 
0:1:6:399, 1278 
0:1:6:414, 1226 
0:1:6:430, 1181 
0:1:6:445, 1149 
0:1:6:460, 1115 
0:1:6:476, 1087 
0:1:6:492, 1065 
0:1:6:509, 1052 
0:1:6:525, 1038 
0:1:6:541, 1026 
0:1:6:557, 1022 
0:1:6:573, 1051 
0:1:6:589, 1131 
0:1:6:604, 1378 
0:1:6:618, 1814 
0:1:6:633, 2216 
0:1:6:649, 2741 
0:1:6:665, 3073 
0:1:6:680, 3329 
0:1:6:696, 3556 
0:1:6:712, 3601 
0:1:6:728, 3571 
0:1:6:744, 3476 
0:1:6:760, 3306 
0:1:6:776, 3197 
0:1:6:792, 3052 
0:1:6:807, 2871 
0:1:6:823, 2730 
0:1:6:838, 2580 
0:1:6:853, 2427 
0:1:6:869, 2292 
0:1:6:885, 2156 
0:1:6:901, 2095 
0:1:6:917, 2075 
0:1:6:933, 2083 
0:1:6:949, 2122 
0:1:6:965, 2154 
0:1:6:981, 2170 
0:1:6:997, 2166 
0:1:7:12, 2149 
0:1:7:27, 2099 
0:1:7:42, 2035 
0:1:7:58, 1959 
0:1:7:73, 1877 
0:1:7:88, 1781 
0:1:7:103, 1686 
0:1:7:119, 1564 
0:1:7:135, 1480 
0:1:7:151, 1394 
0:1:7:166, 1325 
0:1:7:181, 1263 
0:1:7:197, 1224 
0:1:7:213, 1175 
0:1:7:229, 1140 
0:1:7:245, 1111 
0:1:7:261, 1078 
0:1:7:277, 1061 
0:1:7:293, 1038 
0:1:7:308, 1027 
0:1:7:323, 1022 
0:1:7:339, 1015 
0:1:7:354, 1024 
0:1:7:369, 1098 
0:1:7:384, 1326 
0:1:7:400, 1631 
0:1:7:415, 2160 
0:1:7:430, 2706 
0:1:7:445, 3158 
0:1:7:461, 3501 
0:1:7:477, 3622 
0:1:7:493, 3625 
0:1:7:509, 3550 
0:1:7:524, 3402 
0:1:7:539, 3272 
0:1:7:554, 3141 
0:1:7:569, 3020 
0:1:7:585, 2866 
0:1:7:600, 2728 
0:1:7:616, 2624 
0:1:7:632, 2517 
0:1:7:648, 2382 
0:1:7:664, 2303 
0:1:7:680, 2240 
0:1:7:695, 2197 
0:1:7:710, 2178 
0:1:7:726, 2177 
0:1:7:742, 2185 
0:1:7:758, 2198 
0:1:7:773, 2214 
0:1:7:788, 2212 
0:1:7:804, 2176 
0:1:7:819, 2147 
0:1:7:835, 2076 
0:1:7:851, 2005 
0:1:7:867, 1929 
0:1:7:883, 1817 
0:1:7:899, 1727 
0:1:7:915, 1609 
0:1:7:930, 1542 
0:1:7:946, 1445 
0:1:7:962, 1375 
0:1:7:978, 1317 
0:1:7:994, 1259 
0:1:8:9, 1200 
0:1:8:24, 1171 
0:1:8:39, 1134 
0:1:8:55, 1103 
0:1:8:71, 1078 
0:1:8:87, 1054 
0:1:8:103, 1035 
0:1:8:119, 1021 
0:1:8:135, 1008 
0:1:8:150, 1002 
0:1:8:165, 1022 
0:1:8:180, 1095 
0:1:8:195, 1339 
0:1:8:210, 1905 
0:1:8:226, 2318 
0:1:8:241, 2713 
0:1:8:256, 3135 
0:1:8:272, 3398 
0:1:8:288, 3519 
0:1:8:304, 3555 
0:1:8:319, 3483 
0:1:8:335, 3370 
0:1:8:350, 3246 
0:1:8:366, 3121 
0:1:8:382, 2961 
0:1:8:398, 2861 
0:1:8:413, 2723 
0:1:8:429, 2585 
0:1:8:445, 2448 
0:1:8:461, 2321 
0:1:8:476, 2244 
0:1:8:491, 2187 
0:1:8:506, 2142 
0:1:8:522, 2127 
0:1:8:538, 2142 
0:1:8:553, 2159 
0:1:8:568, 2173 
0:1:8:584, 2167 
0:1:8:600, 2139 
0:1:8:616, 2110 
0:1:8:632, 2052 
0:1:8:647, 1995 
0:1:8:663, 1911 
0:1:8:679, 1846 
0:1:8:695, 1756 
0:1:8:711, 1675 
0:1:8:726, 1589 
0:1:8:741, 1505 
0:1:8:757, 1426 
0:1:8:773, 1355 
0:1:8:789, 1279 
0:1:8:805, 1208 
0:1:8:820, 1165 
0:1:8:836, 1138 
0:1:8:852, 1109 
0:1:8:867, 1078 
0:1:8:883, 1051 
0:1:8:899, 1019 
0:1:8:915, 995 
0:1:8:930, 984 
0:1:8:945, 977 
0:1:8:960, 974 
0:1:8:976, 997 
0:1:8:992, 1121 
0:1:9:8, 1381 
0:1:9:23, 1935 
0:1:9:39, 2453 
0:1:9:55, 2808 
0:1:9:71, 3269 
0:1:9:87, 3430 
0:1:9:103, 3458 
0:1:9:119, 3377 
0:1:9:134, 3257 
0:1:9:149, 3122 
0:1:9:165, 2944 
0:1:9:180, 2839 
0:1:9:195, 2689 
0:1:9:210, 2493 
0:1:9:226, 2378 
0:1:9:242, 2231 
0:1:9:258, 2139 
0:1:9:274, 2051 
0:1:9:290, 2003 
0:1:9:305, 1995 
0:1:9:320, 2023 
0:1:9:335, 2054 
0:1:9:351, 2078 
0:1:9:367, 2095 
0:1:9:383, 2093 
0:1:9:399, 2081 
0:1:9:414, 2051 
0:1:9:429, 2026 
0:1:9:445, 1964 
0:1:9:461, 1907 
0:1:9:476, 1820 
0:1:9:492, 1733 
0:1:9:508, 1653 
0:1:9:524, 1552 
0:1:9:539, 1474 
0:1:9:555, 1402 
0:1:9:571, 1331 
0:1:9:587, 1250 
0:1:9:603, 1185 
0:1:9:618, 1150 
0:1:9:634, 1115 
0:1:9:649, 1094 
0:1:9:664, 1075 
0:1:9:680, 1062 
0:1:9:696, 1049 
0:1:9:712, 1036 
0:1:9:727, 1021 
0:1:9:742, 1011 
0:1:9:758, 1003 
0:1:9:774, 1000 
0:1:9:789, 1031 
0:1:9:804, 1156 
0:1:9:819, 1452 
0:1:9:835, 2066 
0:1:9:851, 2606 
0:1:9:867, 3063 
0:1:9:882, 3402 
0:1:9:897, 3550 
0:1:9:913, 3565 
0:1:9:929, 3503 
0:1:9:945, 3398 
0:1:9:961, 3236 
0:1:9:977, 3095 
0:1:9:993, 2926 
0:1:10:9, 2781 
0:1:10:25, 2634 
0:1:10:41, 2485 
0:1:10:57, 2376 
0:1:10:73, 2279 
0:1:10:89, 2178 
0:1:10:105, 2109 
0:1:10:120, 2101 
0:1:10:135, 2114 
0:1:10:150, 2147 
0:1:10:165, 2175 
0:1:10:181, 2184 
0:1:10:197, 2164 
0:1:10:213, 2119 
0:1:10:228, 2058 
0:1:10:243, 1986 
0:1:10:259, 1907 
0:1:10:275, 1846 
0:1:10:291, 1736 
0:1:10:306, 1649 
0:1:10:321, 1566 
0:1:10:337, 1459 
0:1:10:352, 1383 
0:1:10:367, 1314 
0:1:10:382, 1263 
0:1:10:398, 1229 
0:1:10:413, 1191 
0:1:10:429, 1152 
0:1:10:445, 1131 
0:1:10:461, 1103 
0:1:10:476, 1092 
0:1:10:492, 1070 
0:1:10:508, 1052 
0:1:10:524, 1037 
0:1:10:540, 1026 
0:1:10:556, 1037 
0:1:10:572, 1168 
0:1:10:587, 1456 
0:1:10:602, 1924 
0:1:10:618, 2471 
0:1:10:633, 2969 
0:1:10:649, 3255 
0:1:10:665, 3574 
0:1:10:681, 3626 
0:1:10:696, 3619 
0:1:10:711, 3575 
0:1:10:727, 3476 
0:1:10:742, 3382 
0:1:10:758, 3217 
0:1:10:774, 3085 
0:1:10:790, 2955 
0:1:10:806, 2789 
0:1:10:822, 2646 
0:1:10:837, 2508 
0:1:10:852, 2358 
0:1:10:867, 2266 
0:1:10:882, 2220 
0:1:10:898, 2187 
0:1:10:913, 2192 
0:1:10:929, 2210 
0:1:10:945, 2224 
0:1:10:960, 2226 
0:1:10:975, 2202 
0:1:10:991, 2161 
0:1:11:7, 2086 
0:1:11:23, 2010 
0:1:11:38, 1929 
0:1:11:53, 1843 
0:1:11:68, 1756 
0:1:11:83, 1673 
0:1:11:99, 1589 
0:1:11:114, 1513 
0:1:11:130, 1427 
0:1:11:146, 1374 
0:1:11:162, 1294 
0:1:11:178, 1236 
0:1:11:194, 1189 
0:1:11:210, 1144 
0:1:11:226, 1122 
0:1:11:242, 1096 
0:1:11:258, 1079 
0:1:11:274, 1064 
0:1:11:289, 1048 
0:1:11:304, 1034 
0:1:11:319, 1022 
0:1:11:335, 1016 
0:1:11:351, 1059 
0:1:11:366, 1219 
0:1:11:382, 1555 
0:1:11:398, 1919 
0:1:11:415, 2459 
0:1:11:431, 2943 
0:1:11:447, 3298 
0:1:11:463, 3535 
0:1:11:478, 3555 
0:1:11:494, 3490 
0:1:11:510, 3411 
0:1:11:525, 3318 
0:1:11:540, 3187 
0:1:11:556, 3022 
0:1:11:572, 2889 
0:1:11:587, 2747 
0:1:11:602, 2601 
0:1:11:617, 2424 
0:1:11:633, 2325 
0:1:11:649, 2221 
0:1:11:665, 2158 
0:1:11:681, 2134 
0:1:11:697, 2129 
0:1:11:713, 2145 
0:1:11:728, 2163 
0:1:11:744, 2180 
0:1:11:759, 2190 
0:1:11:774, 2181 
0:1:11:790, 2143 
0:1:11:806, 2089 
0:1:11:822, 1943 
0:1:11:837, 1688 
0:1:11:852, 1601 
0:1:11:867, 1517 
0:1:11:882, 1446 
0:1:11:897, 1385 
0:1:11:912, 1312 
0:1:11:928, 1284 
0:1:11:943, 1233 
0:1:11:958, 1188 
0:1:11:974, 1152 
0:1:11:989, 1126 
0:1:12:4, 1098 
0:1:12:20, 1079 
0:1:12:36, 1061 
0:1:12:52, 1033 
0:1:12:68, 1018 
0:1:12:84, 1016 
0:1:12:100, 1062 
0:1:12:116, 1226 
0:1:12:131, 1465 
0:1:12:147, 2045 
0:1:12:162, 2559 
0:1:12:178, 2991 
0:1:12:194, 3330 
0:1:12:210, 3465 
0:1:12:225, 3462 
0:1:12:240, 3396 
0:1:12:256, 3272 
0:1:12:272, 3095 
0:1:12:288, 2947 
0:1:12:304, 2754 
0:1:12:319, 2598 
0:1:12:335, 2437 
0:1:12:351, 2283 
0:1:12:367, 2145 
0:1:12:383, 2026 
0:1:12:399, 1990 
0:1:12:415, 1976 
0:1:12:431, 1997 
0:1:12:447, 2053 
0:1:12:462, 2082 
0:1:12:476, 2105 
0:1:12:492, 2105 
0:1:12:508, 2086 
0:1:12:523, 2054 
0:1:12:539, 2012 
0:1:12:554, 1937 
0:1:12:569, 1879 
0:1:12:584, 1805 
0:1:12:600, 1708 
0:1:12:616, 1653 
0:1:12:632, 1556 
0:1:12:648, 1476 
0:1:12:663, 1402 
0:1:12:678, 1366 
0:1:12:693, 1313 
0:1:12:709, 1268 
0:1:12:725, 1226 
0:1:12:741, 1203 
0:1:12:757, 1175 
0:1:12:772, 1148 
0:1:12:787, 1115 
0:1:12:803, 1098 
0:1:12:818, 1081 
0:1:12:834, 1067 
0:1:12:850, 1052 
0:1:12:866, 1036 
0:1:12:882, 1033 
0:1:12:897, 1049 
0:1:12:913, 1138 
0:1:12:928, 1382 
0:1:12:943, 1692 
0:1:12:959, 2224 
0:1:12:975, 2637 
0:1:12:991, 3113 
0:1:13:6, 3482 
0:1:13:21, 3662 
0:1:13:37, 3661 
0:1:13:53, 3588 
0:1:13:68, 3472 
0:1:13:83, 3340 
0:1:13:99, 3165 
0:1:13:114, 3019 
0:1:13:130, 2874 
0:1:13:146, 2722 
0:1:13:161, 2571 
0:1:13:176, 2465 
0:1:13:191, 2368 
0:1:13:207, 2241 
0:1:13:223, 2183 
0:1:13:239, 2158 
0:1:13:255, 2163 
0:1:13:271, 2189 
0:1:13:287, 2208 
0:1:13:303, 2216 
0:1:13:318, 2199 
0:1:13:334, 2158 
0:1:13:350, 2101 
0:1:13:366, 2030 
0:1:13:382, 1949 
0:1:13:397, 1884 
0:1:13:413, 1818 
0:1:13:429, 1697 
0:1:13:445, 1600 
0:1:13:461, 1516 
0:1:13:477, 1435 
0:1:13:493, 1367 
0:1:13:509, 1295 
0:1:13:524, 1244 
0:1:13:540, 1215 
0:1:13:556, 1190 
0:1:13:572, 1159 
0:1:13:587, 1128 
0:1:13:602, 1100 
0:1:13:618, 1082 
0:1:13:633, 1074 
0:1:13:648, 1061 
0:1:13:664, 1050 
0:1:13:679, 1046 
0:1:13:695, 1048 
0:1:13:711, 1096 
0:1:13:727, 1210 
0:1:13:743, 1420 
0:1:13:759, 1860 
0:1:13:775, 2405 
0:1:13:790, 2913 
0:1:13:805, 3297 
0:1:13:820, 3583 
0:1:13:836, 3620 
0:1:13:852, 3573 
0:1:13:867, 3470 
0:1:13:882, 3309 
0:1:13:897, 3178 
0:1:13:913, 3048 
0:1:13:928, 2923 
0:1:13:944, 2790 
0:1:13:959, 2646 
0:1:13:975, 2530 
0:1:13:991, 2369 
0:1:14:6, 2264 
0:1:14:21, 2192 
0:1:14:37, 2161 
0:1:14:53, 2158 
0:1:14:69, 2168 
0:1:14:85, 2187 
0:1:14:100, 2199 
0:1:14:116, 2205 
0:1:14:132, 2173 
0:1:14:148, 2119 
0:1:14:164, 2050 
0:1:14:180, 1996 
0:1:14:196, 1915 
0:1:14:212, 1810 
0:1:14:228, 1725 
0:1:14:244, 1634 
0:1:14:260, 1543 
0:1:14:276, 1464 
0:1:14:292, 1378 
0:1:14:307, 1315 
0:1:14:323, 1258 
0:1:14:338, 1203 
0:1:14:353, 1166 
0:1:14:369, 1132 
0:1:14:385, 1113 
0:1:14:400, 1099 
0:1:14:416, 1082 
0:1:14:432, 1062 
0:1:14:447, 1043 
0:1:14:463, 1019 
0:1:14:479, 1015 
0:1:14:495, 1022 
0:1:14:511, 1120 
0:1:14:526, 1358 
0:1:14:541, 1782 
0:1:14:557, 2318 
0:1:14:572, 2826 
0:1:14:587, 3134 
0:1:14:603, 3387 
0:1:14:618, 3517 
0:1:14:634, 3560 
0:1:14:650, 3534 
0:1:14:666, 3444 
0:1:14:681, 3348 
0:1:14:696, 3207 
0:1:14:712, 3068 
0:1:14:727, 2959 
0:1:14:742, 2852 
0:1:14:758, 2669 
0:1:14:774, 2519 
0:1:14:790, 2375 
0:1:14:805, 2253 
0:1:14:820, 2156 
0:1:14:836, 2095 
0:1:14:852, 2086 
0:1:14:868, 2107 
0:1:14:883, 2137 
0:1:14:898, 2170 
0:1:14:914, 2173 
0:1:14:930, 2157 
0:1:14:946, 2118 
0:1:14:961, 2060 
0:1:14:977, 1993 
0:1:14:993, 1910 
0:1:15:9, 1827 
0:1:15:25, 1743 
0:1:15:40, 1655 
0:1:15:55, 1549 
0:1:15:70, 1491 
0:1:15:86, 1408 
0:1:15:102, 1357 
0:1:15:118, 1311 
0:1:15:134, 1257 
0:1:15:150, 1220 
0:1:15:166, 1189 
0:1:15:182, 1165 
0:1:15:198, 1143 
0:1:15:213, 1122 
0:1:15:229, 1104 
0:1:15:245, 1086 
0:1:15:261, 1078 
0:1:15:276, 1104 
0:1:15:291, 1273 
0:1:15:306, 1588 
0:1:15:322, 2056 
0:1:15:338, 2685 
0:1:15:354, 3091 
0:1:15:370, 3430 
0:1:15:385, 3502 
0:1:15:400, 3487 
0:1:15:415, 3406 
0:1:15:431, 3289 
0:1:15:447, 3183 
0:1:15:463, 3039 
0:1:15:478, 2897 
0:1:15:494, 2743 
0:1:15:509, 2537 
0:1:15:524, 2370 
0:1:15:539, 2227 
0:1:15:554, 2112 
0:1:15:570, 2024 
0:1:15:586, 2008 
0:1:15:602, 2023 
0:1:15:618, 2050 
0:1:15:634, 2094 
0:1:15:650, 2125 
0:1:15:666, 2148 
0:1:15:682, 2152 
0:1:15:697, 2135 
0:1:15:713, 2087 
0:1:15:728, 2041 
0:1:15:743, 1986 
0:1:15:758, 1879 
0:1:15:773, 1792 
0:1:15:789, 1704 
0:1:15:804, 1639 
0:1:15:820, 1580 
0:1:15:836, 1505 
0:1:15:852, 1413 
0:1:15:868, 1355 
0:1:15:883, 1299 
0:1:15:899, 1247 
0:1:15:914, 1207 
0:1:15:930, 1167 
0:1:15:946, 1148 
0:1:15:962, 1128 
0:1:15:977, 1111 
0:1:15:992, 1093 
0:1:16:7, 1080 
0:1:16:23, 1075 
0:1:16:39, 1117 
0:1:16:55, 1268 
0:1:16:71, 1704 
0:1:16:87, 2082 
0:1:16:103, 2753 
0:1:16:118, 3191 
0:1:16:133, 3555 
0:1:16:149, 3633 
0:1:16:165, 3606 
0:1:16:181, 3498 
0:1:16:197, 3376 
0:1:16:213, 3279 
0:1:16:228, 3186 
0:1:16:244, 3028 
0:1:16:259, 2929 
0:1:16:275, 2765 
0:1:16:291, 2620 
0:1:16:307, 2432 
0:1:16:322, 2315 
0:1:16:338, 2232 
0:1:16:354, 2194 
0:1:16:370, 2204 
0:1:16:386, 2229 
0:1:16:402, 2251 
0:1:16:419, 2258 
0:1:16:435, 2254 
0:1:16:450, 2236 
0:1:16:465, 2191 
0:1:16:481, 2112 
0:1:16:497, 2027 
0:1:16:512, 1933 
0:1:16:528, 1816 
0:1:16:543, 1721 
0:1:16:559, 1634 
0:1:16:574, 1536 
0:1:16:589, 1459 
0:1:16:605, 1395 
0:1:16:621, 1365 
0:1:16:637, 1305 
0:1:16:653, 1250 
0:1:16:669, 1217 
0:1:16:684, 1180 
0:1:16:699, 1153 
0:1:16:714, 1135 
0:1:16:730, 1123 
0:1:16:745, 1098 
0:1:16:761, 1075 
0:1:16:777, 1063 
0:1:16:793, 1063 
0:1:16:809, 1121 
0:1:16:824, 1242 
0:1:16:840, 1669 
0:1:16:856, 2167 
0:1:16:872, 2679 
0:1:16:888, 3176 
0:1:16:904, 3437 
0:1:16:920, 3517 
0:1:16:935, 3497 
0:1:16:951, 3395 
0:1:16:967, 3270 
0:1:16:982, 3146 
0:1:16:998, 3027 
0:1:17:13, 2865 
0:1:17:29, 2764 
0:1:17:45, 2587 
0:1:17:61, 2439 
0:1:17:77, 2307 
0:1:17:93, 2207 
0:1:17:108, 2146 
0:1:17:124, 2133 
0:1:17:140, 2153 
0:1:17:155, 2181 
0:1:17:170, 2202 
0:1:17:185, 2206 
0:1:17:200, 2194 
0:1:17:215, 2157 
0:1:17:231, 2118 
0:1:17:246, 2060 
0:1:17:261, 2006 
0:1:17:277, 1920 
0:1:17:293, 1804 
0:1:17:310, 1706 
0:1:17:326, 1593 
0:1:17:342, 1509 
0:1:17:358, 1436 
0:1:17:374, 1355 
0:1:17:389, 1303 
0:1:17:404, 1269 
0:1:17:420, 1228 
0:1:17:436, 1200 
0:1:17:452, 1157 
0:1:17:467, 1134 
0:1:17:482, 1111 
0:1:17:498, 1089 
0:1:17:513, 1073 
0:1:17:529, 1058 
0:1:17:544, 1059 
0:1:17:559, 1106 
0:1:17:574, 1257 
0:1:17:590, 1571 
0:1:17:606, 2157 
0:1:17:621, 2526 
0:1:17:636, 2857 
0:1:17:651, 3121 
0:1:17:666, 3336 
0:1:17:681, 3434 
0:1:17:697, 3440 
0:1:17:713, 3385 
0:1:17:728, 3308 
0:1:17:744, 3180 
0:1:17:759, 3078 
0:1:17:775, 2937 
0:1:17:791, 2763 
0:1:17:807, 2583 
0:1:17:823, 2433 
0:1:17:838, 2287 
0:1:17:853, 2160 
0:1:17:868, 2089 
0:1:17:883, 2040 
0:1:17:898, 2032 
0:1:17:913, 2057 
0:1:17:929, 2092 
0:1:17:945, 2115 
0:1:17:960, 2123 
0:1:17:976, 2117 
0:1:17:992, 2074 
0:1:18:7, 2015 
0:1:18:23, 1944 
0:1:18:39, 1859 
0:1:18:55, 1774 
0:1:18:71, 1709 
0:1:18:86, 1623 
0:1:18:101, 1565 
0:1:18:116, 1490 
0:1:18:132, 1433 
0:1:18:148, 1371 
0:1:18:163, 1302 
0:1:18:178, 1260 
0:1:18:194, 1197 
0:1:18:210, 1153 
0:1:18:225, 1131 
0:1:18:240, 1111 
0:1:18:256, 1085 
0:1:18:271, 1061 
0:1:18:286, 1045 
0:1:18:302, 1031 
0:1:18:318, 1028 
0:1:18:334, 1069 
0:1:18:350, 1222 
0:1:18:366, 1665 
0:1:18:381, 2177 
0:1:18:396, 2706 
0:1:18:411, 3039 
0:1:18:426, 3391 
0:1:18:441, 3554 
0:1:18:457, 3576 
0:1:18:473, 3520 
0:1:18:489, 3413 
0:1:18:505, 3282 
0:1:18:521, 3149 
0:1:18:537, 2981 
0:1:18:553, 2845 
0:1:18:569, 2704 
0:1:18:585, 2527 
0:1:18:601, 2394 
0:1:18:616, 2305 
0:1:18:632, 2210 
0:1:18:648, 2184 
0:1:18:663, 2179 
0:1:18:678, 2197 
0:1:18:694, 2213 
0:1:18:710, 2228 
0:1:18:726, 2241 
0:1:18:742, 2238 
0:1:18:757, 2219 
0:1:18:772, 2178 
0:1:18:788, 2117 
0:1:18:805, 2063 
0:1:18:821, 1985 
0:1:18:837, 1920 
0:1:18:853, 1830 
0:1:18:868, 1745 
0:1:18:884, 1654 
0:1:18:900, 1563 
0:1:18:915, 1485 
0:1:18:931, 1411 
0:1:18:947, 1349 
0:1:18:963, 1301 
0:1:18:979, 1254 
0:1:18:995, 1205 
0:1:19:11, 1181 
0:1:19:27, 1159 
0:1:19:43, 1136 
0:1:19:59, 1116 
0:1:19:74, 1100 
0:1:19:89, 1081 
0:1:19:105, 1067 
0:1:19:120, 1050 
0:1:19:135, 1049 
0:1:19:150, 1089 
0:1:19:166, 1240 
0:1:19:182, 1572 
0:1:19:198, 2063 
0:1:19:214, 2596 
0:1:19:230, 3058 
0:1:19:246, 3470 
0:1:19:262, 3583 
0:1:19:278, 3583 
0:1:19:294, 3488 
0:1:19:310, 3413 
0:1:19:325, 3299 
0:1:19:341, 3144 
0:1:19:357, 3029 
0:1:19:372, 2868 
0:1:19:387, 2729 
0:1:19:403, 2623 
0:1:19:419, 2488 
0:1:19:435, 2370 
0:1:19:451, 2277 
0:1:19:467, 2241 
0:1:19:483, 2238 
0:1:19:499, 2262 
0:1:19:514, 2272 
0:1:19:530, 2272 
0:1:19:546, 2256 
0:1:19:562, 2224 
0:1:19:578, 2164 
0:1:19:594, 2097 
0:1:19:609, 2015 
0:1:19:624, 1931 
0:1:19:640, 1863 
0:1:19:656, 1768 
0:1:19:672, 1697 
0:1:19:688, 1605 
0:1:19:704, 1542 
0:1:19:719, 1505 
0:1:19:735, 1454 
0:1:19:750, 1388 
0:1:19:766, 1333 
0:1:19:781, 1282 
0:1:19:797, 1238 
0:1:19:813, 1206 
0:1:19:829, 1175 
0:1:19:844, 1162 
0:1:19:859, 1153 
0:1:19:875, 1136 
0:1:19:891, 1120 
0:1:19:907, 1102 
0:1:19:922, 1080 
0:1:19:938, 1069 
0:1:19:954, 1081 
0:1:19:970, 1182 
0:1:19:986, 1538 
0:1:20:2, 2011 
0:1:20:18, 2537 
0:1:20:34, 3081 
0:1:20:50, 3392 
0:1:20:66, 3512 
0:1:20:81, 3504 
0:1:20:96, 3431 
0:1:20:111, 3329 
0:1:20:127, 3221 
0:1:20:143, 3135 
0:1:20:159, 2982 
0:1:20:175, 2858 
0:1:20:191, 2719 
0:1:20:207, 2578 
0:1:20:223, 2445 
0:1:20:239, 2305 
0:1:20:255, 2237 
0:1:20:271, 2208 
0:1:20:286, 2196 
0:1:20:302, 2212 
0:1:20:318, 2224 
0:1:20:333, 2233 
0:1:20:349, 2238 
0:1:20:364, 2223 
0:1:20:379, 2182 
0:1:20:394, 2126 
0:1:20:410, 2056 
0:1:20:425, 1979 
0:1:20:441, 1868 
0:1:20:457, 1778 
0:1:20:473, 1685 
0:1:20:489, 1574 
0:1:20:505, 1494 
0:1:20:521, 1417 
0:1:20:537, 1337 
0:1:20:552, 1293 
0:1:20:567, 1237 
0:1:20:583, 1194 
0:1:20:599, 1155 
0:1:20:615, 1134 
0:1:20:631, 1117 
0:1:20:647, 1102 
0:1:20:663, 1089 
0:1:20:679, 1077 
0:1:20:695, 1066 
0:1:20:711, 1050 
0:1:20:727, 1047 
0:1:20:743, 1033 
0:1:20:759, 1020 
0:1:20:774, 1003 
0:1:20:789, 1005 
0:1:20:804, 1052 
0:1:20:820, 1230 
0:1:20:835, 1592 
0:1:20:850, 2091 
0:1:20:866, 2612 
0:1:20:882, 3039 
0:1:20:898, 3350 
0:1:20:914, 3447 
0:1:20:930, 3460 
0:1:20:946, 3382 
0:1:20:962, 3301 
0:1:20:978, 3169 
0:1:20:994, 2999 
0:1:21:10, 2862 
0:1:21:25, 2719 
0:1:21:40, 2572 
0:1:21:55, 2409 
0:1:21:71, 2226 
0:1:21:87, 2114 
0:1:21:103, 2045 
0:1:21:118, 2028 
0:1:21:134, 2051 
0:1:21:150, 2090 
0:1:21:166, 2116 
0:1:21:182, 2143 
0:1:21:197, 2154 
0:1:21:212, 2135 
0:1:21:227, 2089 
0:1:21:243, 2032 
0:1:21:258, 1956 
0:1:21:273, 1867 
0:1:21:288, 1775 
0:1:21:304, 1679 
0:1:21:320, 1576 
0:1:21:336, 1498 
0:1:21:351, 1420 
0:1:21:367, 1340 
0:1:21:383, 1292 
0:1:21:399, 1226 
0:1:21:414, 1180 
0:1:21:430, 1140 
0:1:21:446, 1105 
0:1:21:462, 1078 
0:1:21:478, 1064 
0:1:21:493, 1060 
0:1:21:508, 1053 
0:1:21:523, 1046 
0:1:21:538, 1026 
0:1:21:553, 1005 
0:1:21:569, 1013 
0:1:21:585, 1054 
0:1:21:601, 1117 
0:1:21:617, 1373 
0:1:21:633, 1689 
0:1:21:648, 2212 
0:1:21:664, 2614 
0:1:21:679, 3071 
0:1:21:695, 3346 
0:1:21:711, 3522 
0:1:21:726, 3550 
0:1:21:741, 3525 
0:1:21:757, 3401 
0:1:21:773, 3266 
0:1:21:789, 3155 
0:1:21:805, 2964 
0:1:21:820, 2813 
0:1:21:836, 2658 
0:1:21:852, 2500 
0:1:21:868, 2299 
0:1:21:884, 2160 
0:1:21:899, 2059 
0:1:21:914, 2005 
0:1:21:930, 1998 
0:1:21:945, 2016 
0:1:21:960, 2040 
0:1:21:975, 2072 
0:1:21:991, 2085 
0:1:22:7, 2093 
0:1:22:23, 2089 
0:1:22:39, 2059 
0:1:22:54, 2013 
0:1:22:70, 1968 
0:1:22:86, 1913 
0:1:22:101, 1831 
0:1:22:117, 1745 
0:1:22:133, 1676 
0:1:22:149, 1566 
0:1:22:164, 1478 
0:1:22:179, 1393 
0:1:22:194, 1339 
0:1:22:209, 1278 
0:1:22:224, 1235 
0:1:22:239, 1182 
0:1:22:255, 1129 
0:1:22:271, 1094 
0:1:22:286, 1069 
0:1:22:302, 1048 
0:1:22:318, 1032 
0:1:22:333, 1016 
0:1:22:349, 1003 
0:1:22:364, 990 
0:1:22:379, 980 
0:1:22:394, 973 
0:1:22:409, 977 
0:1:22:424, 1021 
0:1:22:439, 1169 
0:1:22:454, 1510 
0:1:22:470, 2040 
0:1:22:486, 2763 
0:1:22:502, 3237 
0:1:22:518, 3591 
0:1:22:534, 3734 
0:1:22:550, 3717 
0:1:22:566, 3627 
0:1:22:582, 3467 
0:1:22:598, 3285 
0:1:22:614, 3175 
0:1:22:630, 3069 
0:1:22:646, 2933 
0:1:22:662, 2791 
0:1:22:677, 2636 
0:1:22:692, 2484 
0:1:22:708, 2381 
0:1:22:723, 2320 
0:1:22:739, 2248 
0:1:22:755, 2176 
0:1:22:771, 2154 
0:1:22:787, 2166 
0:1:22:803, 2181 
0:1:22:819, 2191 
0:1:22:835, 2189 
0:1:22:851, 2161 
0:1:22:867, 2101 
0:1:22:883, 2034 
0:1:22:899, 1934 
0:1:22:914, 1849 
0:1:22:929, 1780 
0:1:22:944, 1692 
0:1:22:960, 1605 
0:1:22:976, 1514 
0:1:22:992, 1431 
0:1:23:8, 1355 
0:1:23:24, 1287 
0:1:23:40, 1230 
0:1:23:56, 1171 
0:1:23:72, 1138 
0:1:23:88, 1099 
0:1:23:103, 1074 
0:1:23:118, 1057 
0:1:23:134, 1039 
0:1:23:149, 1016 
0:1:23:164, 1001 
0:1:23:180, 990 
0:1:23:196, 984 
0:1:23:212, 1032 
0:1:23:227, 1093 
0:1:23:243, 1345 
0:1:23:259, 1797 
0:1:23:274, 2362 
0:1:23:289, 2905 
0:1:23:305, 3402 
0:1:23:321, 3634 
0:1:23:337, 3675 
0:1:23:353, 3607 
0:1:23:369, 3457 
0:1:23:384, 3317 
0:1:23:399, 3203 
0:1:23:414, 3070 
0:1:23:429, 2970 
0:1:23:444, 2828 
0:1:23:459, 2675 
0:1:23:475, 2516 
0:1:23:491, 2087 
0:1:23:507, 2088 
0:1:23:523, 2103 
0:1:23:539, 2121 
0:1:23:554, 2130 
0:1:23:570, 2124 
0:1:23:586, 2098 
0:1:23:601, 2058 
0:1:23:617, 1996 
0:1:23:632, 1959 
0:1:23:648, 1883 
0:1:23:663, 1795 
0:1:23:679, 1707 
0:1:23:695, 1606 
0:1:23:711, 1541 
0:1:23:727, 1496 
0:1:23:742, 1414 
0:1:23:757, 1337 
0:1:23:773, 1244 
0:1:23:788, 1178 
0:1:23:804, 1123 
0:1:23:819, 1082 
0:1:23:835, 1059 
0:1:23:850, 1033 
0:1:23:865, 1024 
0:1:23:881, 1012 
0:1:23:897, 998 
0:1:23:913, 986 
0:1:23:929, 970 
0:1:23:945, 958 
0:1:23:960, 961 
0:1:23:975, 1009 
0:1:23:991, 1191 
0:1:24:7, 1565 
0:1:24:22, 2103 
0:1:24:37, 2681 
0:1:24:52, 3054 
0:1:24:68, 3519 
0:1:24:83, 3627 
0:1:24:98, 3649 
0:1:24:113, 3582 
0:1:24:128, 3462 
0:1:24:144, 3348 
0:1:24:160, 3189 
0:1:24:176, 3073 
0:1:24:192, 2913 
0:1:24:208, 2747 
0:1:24:224, 2625 
0:1:24:240, 2498 
0:1:24:255, 2333 
0:1:24:270, 2188 
0:1:24:286, 2074 
0:1:24:301, 2008 
0:1:24:317, 1994 
0:1:24:332, 2010 
0:1:24:347, 2046 
0:1:24:363, 2086 
0:1:24:378, 2104 
0:1:24:393, 2120 
0:1:24:409, 2110 
0:1:24:424, 2081 
0:1:24:440, 2003 
0:1:24:456, 1918 
0:1:24:472, 1850 
0:1:24:488, 1761 
0:1:24:504, 1670 
0:1:24:520, 1582 
0:1:24:535, 1477 
0:1:24:550, 1398 
0:1:24:565, 1330 
0:1:24:581, 1257 
0:1:24:596, 1211 
0:1:24:611, 1184 
0:1:24:627, 1146 
0:1:24:643, 1121 
0:1:24:659, 1103 
0:1:24:675, 1077 
0:1:24:691, 1055 
0:1:24:707, 1043 
0:1:24:722, 1032 
0:1:24:738, 1014 
0:1:24:753, 1003 
0:1:24:769, 1022 
0:1:24:784, 1165 
0:1:24:799, 1471 
0:1:24:815, 1953 
0:1:24:831, 2505 
0:1:24:847, 3110 
0:1:24:863, 3452 
0:1:24:878, 3598 
0:1:24:894, 3605 
0:1:24:910, 3522 
0:1:24:925, 3395 
0:1:24:941, 3209 
0:1:24:957, 3050 
0:1:24:973, 2930 
0:1:24:989, 2762 
0:1:25:5, 2634 
0:1:25:21, 2505 
0:1:25:36, 2377 
0:1:25:52, 2220 
0:1:25:68, 2153 
0:1:25:83, 2049 
0:1:25:99, 2007 
0:1:25:115, 1990 
0:1:25:131, 2001 
0:1:25:147, 2024 
0:1:25:162, 2053 
0:1:25:178, 2093 
0:1:25:194, 2117 
0:1:25:209, 2107 
0:1:25:225, 2088 
0:1:25:241, 2045 
0:1:25:256, 1999 
0:1:25:271, 1940 
0:1:25:286, 1872 
0:1:25:301, 1785 
0:1:25:316, 1675 
0:1:25:332, 1586 
0:1:25:348, 1504 
0:1:25:364, 1401 
0:1:25:380, 1332 
0:1:25:396, 1256 
0:1:25:412, 1209 
0:1:25:428, 1173 
0:1:25:444, 1138 
0:1:25:460, 1100 
0:1:25:475, 1080 
0:1:25:490, 1059 
0:1:25:505, 1046 
0:1:25:520, 1025 
0:1:25:536, 1023 
0:1:25:551, 1041 
0:1:25:567, 1165 
0:1:25:583, 1458 
0:1:25:599, 1948 
0:1:25:615, 2673 
0:1:25:631, 3063 
0:1:25:647, 3372 
0:1:25:663, 3560 
0:1:25:679, 3704 
0:1:25:694, 3750 
0:1:25:709, 3734 
0:1:25:724, 3676 
0:1:25:739, 3589 
0:1:25:755, 3456 
0:1:25:771, 3289 
0:1:25:787, 3154 
0:1:25:803, 2985 
0:1:25:818, 2845 
0:1:25:834, 2705 
0:1:25:850, 2524 
0:1:25:866, 2398 
0:1:25:882, 2301 
0:1:25:898, 2267 
0:1:25:914, 2234 
0:1:25:930, 2236 
0:1:25:945, 2255 
0:1:25:960, 2268 
0:1:25:975, 2271 
0:1:25:991, 2249 
0:1:26:7, 2210 
0:1:26:23, 2159 
0:1:26:39, 2092 
0:1:26:55, 2008 
0:1:26:71, 1915 
0:1:26:86, 1839 
0:1:26:101, 1763 
0:1:26:116, 1668 
0:1:26:132, 1599 
0:1:26:148, 1517 
0:1:26:164, 1447 
0:1:26:180, 1362 
0:1:26:195, 1306 
0:1:26:210, 1261 
0:1:26:226, 1228 
0:1:26:241, 1189 
0:1:26:256, 1155 
0:1:26:272, 1118 
0:1:26:288, 1082 
0:1:26:304, 1057 
0:1:26:319, 1043 
0:1:26:335, 1052 
0:1:26:351, 1125 
0:1:26:367, 1422 
0:1:26:383, 1865 
0:1:26:399, 2527 
0:1:26:415, 3003 
0:1:26:430, 3367 
0:1:26:445, 3536 
0:1:26:460, 3562 
0:1:26:476, 3497 
0:1:26:492, 3352 
0:1:26:508, 3248 
0:1:26:523, 3120 
0:1:26:539, 2971 
0:1:26:555, 2844 
0:1:26:571, 2673 
0:1:26:586, 2529 
0:1:26:602, 2389 
0:1:26:618, 2301 
0:1:26:634, 2214 
0:1:26:650, 2160 
0:1:26:665, 2145 
0:1:26:680, 2148 
0:1:26:696, 2158 
0:1:26:712, 2178 
0:1:26:727, 2188 
0:1:26:743, 2196 
0:1:26:759, 2190 
0:1:26:775, 2167 
0:1:26:791, 2120 
0:1:26:806, 2041 
0:1:26:822, 1967 
0:1:26:838, 1887 
0:1:26:854, 1777 
0:1:26:870, 1687 
0:1:26:886, 1311 
0:1:26:901, 1265 
0:1:26:916, 1241 
0:1:26:932, 1219 
0:1:26:948, 1188 
0:1:26:964, 1156 
0:1:26:980, 1129 
0:1:26:995, 1103 
0:1:27:10, 1083 
0:1:27:27, 1077 
0:1:27:43, 1120 
0:1:27:58, 1340 
0:1:27:74, 1710 
0:1:27:90, 2325 
0:1:27:106, 2785 
0:1:27:122, 3058 
0:1:27:137, 3325 
0:1:27:152, 3403 
0:1:27:168, 3387 
0:1:27:184, 3302 
0:1:27:200, 3183 
0:1:27:216, 3053 
0:1:27:231, 2916 
0:1:27:247, 2743 
0:1:27:263, 2601 
0:1:27:279, 2413 
0:1:27:295, 2271 
0:1:27:311, 2144 
0:1:27:327, 2053 
0:1:27:342, 2012 
0:1:27:357, 2015 
0:1:27:372, 2053 
0:1:27:387, 2102 
0:1:27:403, 2154 
0:1:27:418, 2179 
0:1:27:434, 2172 
0:1:27:450, 2118 
0:1:27:466, 2052 
0:1:27:481, 1974 
0:1:27:496, 1885 
0:1:27:512, 1790 
0:1:27:528, 1674 
0:1:27:544, 1600 
0:1:27:560, 1527 
0:1:27:576, 1457 
0:1:27:592, 1380 
0:1:27:607, 1320 
0:1:27:622, 1270 
0:1:27:638, 1223 
0:1:27:654, 1187 
0:1:27:670, 1163 
0:1:27:686, 1144 
0:1:27:702, 1129 
0:1:27:718, 1099 
0:1:27:734, 1071 
0:1:27:750, 1056 
0:1:27:766, 1059 
0:1:27:782, 1133 
0:1:27:798, 1339 
0:1:27:814, 1840 
0:1:27:829, 2343 
0:1:27:844, 2808 
0:1:27:859, 3158 
0:1:27:874, 3382 
0:1:27:890, 3432 
0:1:27:906, 3397 
0:1:27:922, 3302 
0:1:27:938, 3182 
0:1:27:953, 3054 
0:1:27:968, 2957 
0:1:27:984, 2827 
0:1:28:0, 2696 
0:1:28:17, 2526 
0:1:28:33, 2382 
0:1:28:49, 2219 
0:1:28:65, 2127 
0:1:28:80, 2078 
0:1:28:95, 2066 
0:1:28:111, 2081 
0:1:28:127, 2126 
0:1:28:143, 2155 
0:1:28:159, 2164 
0:1:28:175, 2156 
0:1:28:190, 2120 
0:1:28:205, 2068 
0:1:28:220, 2007 
0:1:28:235, 1953 
0:1:28:251, 1868 
0:1:28:267, 1782 
0:1:28:283, 1715 
0:1:28:299, 1627 
0:1:28:314, 1568 
0:1:28:330, 1469 
0:1:28:345, 1398 
0:1:28:361, 1336 
0:1:28:377, 1279 
0:1:28:393, 1230 
0:1:28:409, 1186 
0:1:28:425, 1165 
0:1:28:441, 1150 
0:1:28:457, 1132 
0:1:28:473, 1115 
0:1:28:488, 1092 
0:1:28:503, 1073 
0:1:28:518, 1071 
0:1:28:534, 1930 
0:1:28:549, 2450 
0:1:28:564, 2812 
0:1:28:579, 3186 
0:1:28:594, 3445 
0:1:28:610, 3497 
0:1:28:626, 3491 
0:1:28:641, 3429 
0:1:28:657, 3354 
0:1:28:673, 3268 
0:1:28:689, 3151 
0:1:28:705, 3067 
0:1:28:720, 2956 
0:1:28:736, 2849 
0:1:28:752, 2731 
0:1:28:768, 2634 
0:1:28:783, 2505 
0:1:28:798, 2383 
0:1:28:813, 2285 
0:1:28:828, 2219 
0:1:28:844, 2199 
0:1:28:859, 2209 
0:1:28:875, 2236 
0:1:28:891, 2239 
0:1:28:907, 2216 
0:1:28:923, 2176 
0:1:28:939, 2125 
0:1:28:955, 2061 
0:1:28:971, 2005 
0:1:28:987, 1933 
0:1:29:2, 1860 
0:1:29:17, 1801 
0:1:29:32, 1719 
0:1:29:47, 1637 
0:1:29:63, 1574 
0:1:29:78, 1516 
0:1:29:94, 1467 
0:1:29:109, 1434 
0:1:29:125, 1356 
0:1:29:141, 1306 
0:1:29:157, 1257 
0:1:29:173, 1239 
0:1:29:189, 1208 
0:1:29:205, 1182 
0:1:29:220, 1158 
0:1:29:236, 1141 
0:1:29:251, 1122 
0:1:29:266, 1094 
0:1:29:282, 1074 
0:1:29:298, 1059 
0:1:29:314, 1070 
0:1:29:330, 1163 
0:1:29:346, 1408 
0:1:29:362, 1957 
0:1:29:377, 2337 
0:1:29:392, 2806 
0:1:29:408, 3160 
0:1:29:423, 3389 
0:1:29:439, 3441 
0:1:29:455, 3379 
0:1:29:471, 3280 
0:1:29:486, 3167 
0:1:29:501, 3080 
0:1:29:518, 2947 
0:1:29:534, 2842 
0:1:29:550, 2695 
0:1:29:566, 2570 
0:1:29:582, 2438 
0:1:29:598, 2325 
0:1:29:614, 2240 
0:1:29:629, 2185 
0:1:29:645, 2161 
0:1:29:661, 2157 
0:1:29:677, 2166 
0:1:29:693, 2183 
0:1:29:709, 2194 
0:1:29:725, 2194 
0:1:29:740, 2180 
0:1:29:755, 2147 
0:1:29:771, 2098 
0:1:29:787, 2067 
0:1:29:803, 2017 
0:1:29:818, 1953 
0:1:29:834, 1877 
0:1:29:849, 1774 
0:1:29:864, 1713 
0:1:29:880, 1611 
0:1:29:896, 1534 
0:1:29:912, 1450 
0:1:29:928, 1401 
0:1:29:944, 1335 
0:1:29:959, 1290 
0:1:29:974, 1247 
0:1:29:989, 1224 
0:1:30:5, 1198 
0:1:30:20, 1174 
0:1:30:36, 1156 
0:1:30:52, 1134 
0:1:30:68, 1110 
0:1:30:83, 1095 
0:1:30:98, 1080 
0:1:30:114, 1068 
0:1:30:130, 1073 
0:1:30:146, 1113 
0:1:30:162, 1319 
0:1:30:178, 1567 
0:1:30:193, 1897 
0:1:30:208, 2378 
0:1:30:223, 2806 
0:1:30:239, 3113 
0:1:30:254, 3297 
0:1:30:269, 3330 
0:1:30:285, 3281 
0:1:30:301, 3155 
0:1:30:317, 3037 
0:1:30:333, 2912 
0:1:30:349, 2760 
0:1:30:365, 2628 
0:1:30:381, 2458 
0:1:30:397, 2317 
0:1:30:413, 2197 
0:1:30:428, 2129 
0:1:30:443, 2073 
0:1:30:458, 2057 
0:1:30:474, 2089 
0:1:30:490, 2126 
0:1:30:506, 2155 
0:1:30:522, 2170 
0:1:30:538, 2155 
0:1:30:554, 2115 
0:1:30:570, 2040 
0:1:30:586, 1967 
0:1:30:602, 1895 
0:1:30:617, 1834 
0:1:30:633, 1769 
0:1:30:648, 1705 
0:1:30:663, 1642 
0:1:30:678, 1578 
0:1:30:694, 1521 
0:1:30:710, 1448 
0:1:30:726, 1397 
0:1:30:742, 1338 
0:1:30:758, 1284 
0:1:30:774, 1219 
0:1:30:790, 1184 
0:1:30:806, 1163 
0:1:30:821, 1133 
0:1:30:837, 1112 
0:1:30:853, 1086 
0:1:30:869, 1071 
0:1:30:885, 1056 
0:1:30:900, 1047 
0:1:30:915, 1039 
0:1:30:931, 1063 
0:1:30:946, 1218 
0:1:30:963, 1530 
0:1:30:978, 1995 
0:1:30:994, 2502 
0:1:31:11, 2937 
0:1:31:26, 3256 
0:1:31:42, 3397 
0:1:31:57, 3413 
0:1:31:73, 3329 
0:1:31:89, 3212 
0:1:31:105, 3047 
0:1:31:120, 2922 
0:1:31:135, 2792 
0:1:31:150, 2725 
0:1:31:166, 2624 
0:1:31:182, 2483 
0:1:31:198, 2334 
0:1:31:213, 2230 
0:1:31:229, 2143 
0:1:31:245, 2068 
0:1:31:261, 2043 
0:1:31:276, 2048 
0:1:31:292, 2074 
0:1:31:307, 2102 
0:1:31:322, 2132 
0:1:31:338, 2140 
0:1:31:354, 2139 
0:1:31:369, 2128 
0:1:31:384, 2092 
0:1:31:400, 2039 
0:1:31:416, 1993 
0:1:31:431, 1934 
0:1:31:446, 1871 
0:1:31:462, 1807 
0:1:31:478, 1720 
0:1:31:493, 1656 
0:1:31:508, 1570 
0:1:31:523, 1509 
0:1:31:539, 1444 
0:1:31:555, 1387 
0:1:31:571, 1311 
0:1:31:587, 1256 
0:1:31:602, 1211 
0:1:31:617, 1180 
0:1:31:633, 1153 
0:1:31:649, 1132 
0:1:31:665, 1120 
0:1:31:681, 1104 
0:1:31:696, 1097 
0:1:31:711, 1088 
0:1:31:728, 1079 
0:1:31:743, 1058 
0:1:31:758, 1048 
0:1:31:774, 1052 
0:1:31:790, 1121 
0:1:31:805, 1252 
0:1:31:820, 1488 
0:1:31:835, 1824 
0:1:31:850, 2351 
0:1:31:866, 2847 
0:1:31:882, 3218 
0:1:31:898, 3436 
0:1:31:914, 3532 
0:1:31:929, 3532 
0:1:31:945, 3447 
0:1:31:961, 3334 
0:1:31:977, 3241 
0:1:31:993, 3124 
0:1:32:8, 2928 
0:1:32:24, 2492 
0:1:32:40, 2361 
0:1:32:56, 2259 
0:1:32:71, 2204 
0:1:32:86, 2171 
0:1:32:102, 2174 
0:1:32:118, 2189 
0:1:32:134, 2211 
0:1:32:150, 2208 
0:1:32:166, 2186 
0:1:32:182, 2143 
0:1:32:197, 2103 
0:1:32:212, 2036 
0:1:32:227, 1978 
0:1:32:243, 1916 
0:1:32:259, 1828 
0:1:32:275, 1745 
0:1:32:291, 1659 
0:1:32:306, 1549 
0:1:32:322, 1472 
0:1:32:338, 1392 
0:1:32:354, 1311 
0:1:32:370, 1257 
0:1:32:386, 1214 
0:1:32:402, 1179 
0:1:32:418, 1152 
0:1:32:434, 1136 
0:1:32:450, 1121 
0:1:32:466, 1104 
0:1:32:482, 1079 
0:1:32:498, 1062 
0:1:32:514, 1034 
0:1:32:529, 1012 
0:1:32:544, 1011 
0:1:32:559, 1093 
0:1:32:574, 1345 
0:1:32:590, 1786 
0:1:32:606, 2324 
0:1:32:621, 2833 
0:1:32:637, 3129 
0:1:32:653, 3417 
0:1:32:668, 3498 
0:1:32:684, 3513 
0:1:32:700, 3512 
0:1:32:715, 3480 
0:1:32:730, 3417 
0:1:32:746, 3332 
0:1:32:761, 3209 
0:1:32:776, 3088 
0:1:32:791, 2965 
0:1:32:806, 2843 
0:1:32:822, 2748 
0:1:32:838, 2611 
0:1:32:854, 2541 
0:1:32:870, 2472 
0:1:32:886, 2334 
0:1:32:901, 2273 
0:1:32:917, 2180 
0:1:32:933, 2131 
0:1:32:949, 2119 
0:1:32:965, 2136 
0:1:32:981, 2155 
0:1:32:996, 2164 
0:1:33:11, 2166 
0:1:33:26, 2154 
0:1:33:42, 2123 
0:1:33:58, 2113 
0:1:33:74, 2104 
0:1:33:90, 2093 
0:1:33:105, 2072 
0:1:33:121, 2059 
0:1:33:137, 2012 
0:1:33:153, 1915 
0:1:33:168, 1828 
0:1:33:183, 1739 
0:1:33:199, 1656 
0:1:33:215, 1580 
0:1:33:230, 1501 
0:1:33:245, 1421 
0:1:33:260, 1361 
0:1:33:276, 1291 
0:1:33:292, 1238 
0:1:33:307, 1197 
0:1:33:323, 1157 
0:1:33:339, 1149 
0:1:33:354, 1134 
0:1:33:369, 1116 
0:1:33:385, 1110 
0:1:33:401, 1104 
0:1:33:417, 1094 
0:1:33:432, 1094 
0:1:33:448, 1081 
0:1:33:464, 1062 
0:1:33:479, 1062 
0:1:33:494, 1055 
0:1:33:510, 1030 
0:1:33:526, 1008 
0:1:33:541, 996 
0:1:33:557, 986 
0:1:33:573, 980 
0:1:33:589, 1021 
0:1:33:605, 1154 
0:1:33:621, 1464 
0:1:33:637, 1816 
0:1:33:653, 2352 
0:1:33:668, 2730 
0:1:33:683, 2949 
0:1:33:698, 3208 
0:1:33:713, 3409 
0:1:33:728, 3485 
0:1:33:744, 3490 
0:1:33:760, 3420 
0:1:33:775, 3363 
0:1:33:790, 3266 
0:1:33:806, 3198 
0:1:33:821, 3093 
0:1:33:837, 2948 
0:1:33:853, 2804 
0:1:33:869, 2654 
0:1:33:884, 2535 
0:1:33:899, 2421 
0:1:33:915, 2309 
0:1:33:931, 2172 
0:1:33:946, 2090 
0:1:33:961, 2024 
0:1:33:976, 2001 
0:1:33:992, 2133 
0:1:34:8, 2100 
0:1:34:23, 2047 
0:1:34:39, 1976 
0:1:34:55, 1899 
0:1:34:70, 1818 
0:1:34:86, 1750 
0:1:34:102, 1685 
0:1:34:118, 1623 
0:1:34:134, 1540 
0:1:34:150, 1458 
0:1:34:166, 1384 
0:1:34:181, 1317 
0:1:34:196, 1265 
0:1:34:211, 1216 
0:1:34:226, 1184 
0:1:34:241, 1184 
0:1:34:257, 1151 
0:1:34:272, 1124 
0:1:34:287, 1094 
0:1:34:303, 1073 
0:1:34:318, 1059 
0:1:34:334, 1052 
0:1:34:350, 1044 
0:1:34:366, 1040 
0:1:34:381, 1038 
0:1:34:397, 1033 
0:1:34:412, 1029 
0:1:34:427, 1018 
0:1:34:443, 1014 
0:1:34:459, 1014 
0:1:34:475, 1012 
0:1:34:491, 1009 
0:1:34:506, 1008 
0:1:34:522, 1008 
0:1:34:537, 1009 
0:1:34:553, 1014 
0:1:34:568, 1042 
0:1:34:584, 1085 
0:1:34:600, 1160 
0:1:34:615, 1279 
0:1:34:631, 1551 
0:1:34:646, 1787 
0:1:34:661, 2188 
0:1:34:677, 2591 
0:1:34:692, 2837 
0:1:34:708, 3055 
0:1:34:723, 3234 
0:1:34:739, 3306 
0:1:34:755, 3455 
0:1:34:770, 3518 
0:1:34:785, 3538 
0:1:34:801, 3538 
0:1:34:817, 3550 
0:1:34:832, 3544 
0:1:34:848, 3488 
0:1:34:863, 3404 
0:1:34:878, 3306 
0:1:34:893, 3160 
0:1:34:909, 3084 
0:1:34:924, 3084 
0:1:34:940, 3048 
0:1:34:957, 3048 
0:1:34:973, 3012 
0:1:34:988, 2940 
0:1:35:3, 2902 
0:1:35:19, 2902 
0:1:35:35, 2864 
0:1:35:50, 2826 
0:1:35:66, 2826 
0:1:35:81, 2786 
0:1:35:97, 2746 
0:1:35:112, 2706 
0:1:35:127, 2665 
0:1:35:143, 2665 
0:1:35:158, 2580 
0:1:35:173, 2497 
0:1:35:189, 2373 
0:1:35:205, 2225 
0:1:35:221, 2132 
0:1:35:236, 2060 
0:1:35:251, 2013 
0:1:35:267, 1994 
0:1:35:283, 2004 
0:1:35:298, 2035 
0:1:35:314, 2079 
0:1:35:330, 2110 
0:1:35:346, 2120 
0:1:35:361, 2115 
0:1:35:377, 2097 
0:1:35:392, 2049 
0:1:35:408, 2003 
0:1:35:423, 1945 
0:1:35:439, 1835 
0:1:35:455, 1750 
0:1:35:471, 1661 
0:1:35:486, 1576 
0:1:35:502, 1491 
0:1:35:519, 1407 
0:1:35:534, 1330 
0:1:35:549, 1258 
0:1:35:564, 1212 
0:1:35:579, 1162 
0:1:35:594, 1141 
0:1:35:609, 1106 
0:1:35:625, 1088 
0:1:35:640, 1077 
0:1:35:655, 1077 
0:1:35:671, 1067 
0:1:35:687, 1056 
0:1:35:703, 1046 
0:1:35:719, 1037 
0:1:35:735, 1024 
0:1:35:751, 1010 
0:1:35:767, 1003 
0:1:35:783, 997 
0:1:35:799, 996 
0:1:35:814, 1007 
0:1:35:829, 1028 
0:1:35:845, 1147 
0:1:35:861, 1443 
0:1:35:876, 1671 
0:1:35:891, 2225 
0:1:35:906, 2791 
0:1:35:922, 3149 
0:1:35:938, 3514 
0:1:35:953, 3677 
0:1:35:969, 3701 
0:1:35:985, 3633 
0:1:36:1, 3543 
0:1:36:16, 3440 
0:1:36:31, 3249 
0:1:36:46, 3096 
0:1:36:61, 2944 
0:1:36:77, 2803 
0:1:36:93, 2662 
0:1:36:109, 2524 
0:1:36:125, 2424 
0:1:36:141, 2307 
0:1:36:157, 2218 
0:1:36:173, 2170 
0:1:36:188, 2141 
0:1:36:203, 2141 
0:1:36:219, 2141 
0:1:36:234, 2144 
0:1:36:250, 2158 
0:1:36:266, 2178 
0:1:36:281, 2191 
0:1:36:296, 2197 
0:1:36:312, 2180 
0:1:36:328, 2153 
0:1:36:343, 2099 
0:1:36:359, 2045 
0:1:36:375, 1963 
0:1:36:391, 977 
0:1:36:406, 995 
0:1:36:421, 1054 
0:1:36:437, 1351 
0:1:36:453, 1812 
0:1:36:469, 2389 
0:1:36:485, 2932 
0:1:36:500, 3336 
0:1:36:515, 3606 
0:1:36:530, 3663 
0:1:36:546, 3642 
0:1:36:561, 3550 
0:1:36:577, 3416 
0:1:36:593, 3273 
0:1:36:609, 3201 
0:1:36:624, 3056 
0:1:36:640, 2987 
0:1:36:656, 2847 
0:1:36:672, 2697 
0:1:36:688, 2582 
0:1:36:704, 2430 
0:1:36:720, 2325 
0:1:36:736, 2261 
0:1:36:751, 2154 
0:1:36:766, 2090 
0:1:36:782, 2068 
0:1:36:798, 2075 
0:1:36:813, 2091 
0:1:36:828, 2106 
0:1:36:844, 2107 
0:1:36:860, 2097 
0:1:36:876, 2054 
0:1:36:892, 2005 
0:1:36:908, 1960 
0:1:36:924, 1943 
0:1:36:940, 1904 
0:1:36:955, 1883 
0:1:36:970, 1839 
0:1:36:986, 1793 
0:1:37:1, 1705 
0:1:37:17, 1644 
0:1:37:32, 1562 
0:1:37:48, 1475 
0:1:37:63, 1394 
0:1:37:79, 1318 
0:1:37:95, 1250 
0:1:37:111, 1176 
0:1:37:126, 1131 
0:1:37:141, 1104 
0:1:37:157, 1073 
0:1:37:172, 1044 
0:1:37:187, 1031 
0:1:37:203, 1016 
0:1:37:218, 1001 
0:1:37:234, 994 
0:1:37:250, 980 
0:1:37:266, 973 
0:1:37:281, 970 
0:1:37:297, 978 
0:1:37:313, 1041 
0:1:37:329, 1249 
0:1:37:344, 1653 
0:1:37:360, 2202 
0:1:37:376, 2754 
0:1:37:392, 3200 
0:1:37:407, 3524 
0:1:37:422, 3590 
0:1:37:437, 3624 
0:1:37:452, 3585 
0:1:37:467, 3477 
0:1:37:483, 3332 
0:1:37:499, 3178 
0:1:37:514, 2978 
0:1:37:530, 2812 
0:1:37:546, 2638 
0:1:37:562, 2411 
0:1:37:578, 2250 
0:1:37:594, 2081 
0:1:37:610, 1997 
0:1:37:625, 1966 
0:1:37:640, 1960 
0:1:37:655, 1977 
0:1:37:671, 2013 
0:1:37:686, 2037 
0:1:37:701, 2072 
0:1:37:717, 2102 
0:1:37:732, 2122 
0:1:37:748, 2117 
0:1:37:764, 2095 
0:1:37:780, 2051 
0:1:37:796, 1982 
0:1:37:811, 1901 
0:1:37:827, 1815 
0:1:37:842, 1771 
0:1:37:858, 1727 
0:1:37:874, 1661 
0:1:37:889, 1575 
0:1:37:905, 1510 
0:1:37:920, 1447 
0:1:37:935, 1389 
0:1:37:951, 1320 
0:1:37:966, 1272 
0:1:37:982, 1215 
0:1:37:998, 1161 
0:1:38:14, 1121 
0:1:38:31, 1091 
0:1:38:47, 1070 
0:1:38:63, 1048 
0:1:38:79, 1038 
0:1:38:95, 1024 
0:1:38:111, 1011 
0:1:38:126, 999 
0:1:38:141, 992 
0:1:38:156, 995 
0:1:38:171, 1029 
0:1:38:186, 1247 
0:1:38:202, 1640 
0:1:38:218, 2196 
0:1:38:233, 2633 
0:1:38:249, 3678 
0:1:38:265, 3266 
0:1:38:281, 3464 
0:1:38:296, 3546 
0:1:38:312, 3662 
0:1:38:328, 3724 
0:1:38:344, 3791 
0:1:38:359, 3823 
0:1:38:375, 3807 
0:1:38:390, 3714 
0:1:38:405, 3615 
0:1:38:421, 3542 
0:1:38:436, 3394 
0:1:38:451, 3246 
0:1:38:466, 3136 
0:1:38:482, 3062 
0:1:38:498, 2988 
0:1:38:514, 2832 
0:1:38:529, 2678 
0:1:38:545, 2532 
0:1:38:561, 2429 
0:1:38:576, 2322 
0:1:38:592, 2269 
0:1:38:607, 2226 
0:1:38:622, 2212 
0:1:38:638, 2214 
0:1:38:654, 2228 
0:1:38:670, 2233 
0:1:38:686, 2247 
0:1:38:702, 2249 
0:1:38:718, 2244 
0:1:38:733, 2229 
0:1:38:749, 2198 
0:1:38:765, 2137 
0:1:38:781, 2059 
0:1:38:797, 1968 
0:1:38:812, 1872 
0:1:38:828, 1775 
0:1:38:844, 1674 
0:1:38:859, 1582 
0:1:38:874, 1497 
0:1:38:889, 1418 
0:1:38:904, 1362 
0:1:38:920, 1313 
0:1:38:935, 1273 
0:1:38:951, 1235 
0:1:38:967, 1199 
0:1:38:983, 1155 
0:1:38:999, 1121 
0:1:39:14, 1107 
0:1:39:30, 1092 
0:1:39:46, 1073 
0:1:39:62, 1059 
0:1:39:77, 1037 
0:1:39:92, 1012 
0:1:39:107, 998 
0:1:39:122, 996 
0:1:39:137, 1010 
0:1:39:153, 1070 
0:1:39:169, 1218 
0:1:39:185, 1382 
0:1:39:201, 1725 
0:1:39:217, 2297 
0:1:39:233, 2442 
0:1:39:249, 2584 
0:1:39:264, 2722 
0:1:39:279, 2722 
0:1:39:294, 2852 
0:1:39:310, 2974 
0:1:39:326, 3088 
0:1:39:341, 3193 
0:1:39:357, 3287 
0:1:39:373, 3373 
0:1:39:389, 3479 
0:1:39:404, 3550 
0:1:39:420, 3596 
0:1:39:435, 3631 
0:1:39:451, 3683 
0:1:39:467, 3669 
0:1:39:483, 3614 
0:1:39:498, 3533 
0:1:39:513, 3469 
0:1:39:529, 3364 
0:1:39:544, 3292 
0:1:39:559, 3189 
0:1:39:574, 3124 
0:1:39:590, 3031 
0:1:39:606, 2896 
0:1:39:621, 2790 
0:1:39:637, 2643 
0:1:39:653, 2525 
0:1:39:669, 2415 
0:1:39:685, 2322 
0:1:39:701, 2245 
0:1:39:717, 2184 
0:1:39:732, 2141 
0:1:39:748, 2122 
0:1:39:763, 2125 
0:1:39:779, 2143 
0:1:39:794, 2163 
0:1:39:809, 2170 
0:1:39:825, 2164 
0:1:39:840, 2150 
0:1:39:855, 2124 
0:1:39:871, 2067 
0:1:39:886, 2014 
0:1:39:902, 1958 
0:1:39:917, 1893 
0:1:39:933, 1775 
0:1:39:949, 1703 
0:1:39:965, 1637 
0:1:39:981, 1549 
0:1:39:997, 1467 
0:1:40:13, 1393 
0:1:40:28, 1307 
0:1:40:43, 1260 
0:1:40:59, 1193 
0:1:40:75, 1158 
0:1:40:91, 1123 
0:1:40:107, 1089 
0:1:40:122, 1068 
0:1:40:138, 1050 
0:1:40:154, 1035 
0:1:40:170, 1024 
0:1:40:186, 1004 
0:1:40:201, 993 
0:1:40:216, 1003 
0:1:40:231, 1052 
0:1:40:247, 1244 
0:1:40:262, 1634 
0:1:40:277, 2168 
0:1:40:292, 2594 
0:1:40:307, 3084 
0:1:40:322, 3512 
0:1:40:338, 3620 
0:1:40:354, 3605 
0:1:40:370, 3514 
0:1:40:386, 3414 
0:1:40:402, 2066 
0:1:40:418, 2099 
0:1:40:433, 2121 
0:1:40:449, 2121 
0:1:40:465, 2093 
0:1:40:480, 2045 
0:1:40:495, 1989 
0:1:40:510, 1917 
0:1:40:526, 1814 
0:1:40:541, 1728 
0:1:40:557, 1638 
0:1:40:573, 1550 
0:1:40:589, 1491 
0:1:40:604, 1424 
0:1:40:620, 1359 
0:1:40:636, 1299 
0:1:40:652, 1261 
0:1:40:668, 1225 
0:1:40:684, 1189 
0:1:40:700, 1145 
0:1:40:715, 1125 
0:1:40:730, 1096 
0:1:40:745, 1073 
0:1:40:760, 1052 
0:1:40:776, 1034 
0:1:40:791, 1025 
0:1:40:807, 1018 
0:1:40:822, 1016 
0:1:40:837, 1023 
0:1:40:853, 1087 
0:1:40:868, 1214 
0:1:40:884, 1445 
0:1:40:900, 1917 
0:1:40:915, 2331 
0:1:40:931, 2860 
0:1:40:947, 3266 
0:1:40:962, 3499 
0:1:40:977, 3607 
0:1:40:992, 3597 
0:1:41:8, 3535 
0:1:41:24, 3410 
0:1:41:40, 3257 
0:1:41:55, 3101 
0:1:41:71, 2901 
0:1:41:87, 2734 
0:1:41:103, 2564 
0:1:41:119, 2352 
0:1:41:134, 2205 
0:1:41:150, 2062 
0:1:41:166, 2004 
0:1:41:182, 1992 
0:1:41:197, 2006 
0:1:41:212, 2026 
0:1:41:228, 2057 
0:1:41:244, 2092 
0:1:41:260, 2108 
0:1:41:276, 2105 
0:1:41:292, 2064 
0:1:41:308, 2019 
0:1:41:324, 1947 
0:1:41:339, 1859 
0:1:41:355, 1758 
0:1:41:371, 1632 
0:1:41:387, 1532 
0:1:41:403, 1445 
0:1:41:419, 1406 
0:1:41:435, 1330 
0:1:41:450, 1265 
0:1:41:465, 1227 
0:1:41:481, 1181 
0:1:41:497, 1139 
0:1:41:513, 1109 
0:1:41:528, 1087 
0:1:41:544, 1062 
0:1:41:559, 1050 
0:1:41:575, 1034 
0:1:41:591, 1017 
0:1:41:607, 1014 
0:1:41:624, 1028 
0:1:41:640, 1088 
0:1:41:656, 1229 
0:1:41:671, 1478 
0:1:41:686, 1841 
0:1:41:701, 2279 
0:1:41:717, 2720 
0:1:41:732, 3220 
0:1:41:748, 3496 
0:1:41:763, 3735 
0:1:41:779, 3778 
0:1:41:795, 3705 
0:1:41:811, 3547 
0:1:41:827, 3443 
0:1:41:843, 3341 
0:1:41:859, 3170 
0:1:41:875, 3032 
0:1:41:891, 2885 
0:1:41:906, 2770 
0:1:41:921, 2618 
0:1:41:936, 2505 
0:1:41:951, 2373 
0:1:41:967, 2273 
0:1:41:983, 2227 
0:1:41:999, 2196 
0:1:42:15, 2198 
0:1:42:31, 2214 
0:1:42:47, 2228 
0:1:42:62, 2228 
0:1:42:77, 2216 
0:1:42:93, 2187 
0:1:42:108, 2151 
0:1:42:123, 2094 
0:1:42:138, 2026 
0:1:42:153, 2052 
0:1:42:168, 3029 
0:1:42:184, 2892 
0:1:42:200, 2705 
0:1:42:216, 2554 
0:1:42:232, 2444 
0:1:42:248, 2314 
0:1:42:264, 2232 
0:1:42:280, 2159 
0:1:42:296, 2116 
0:1:42:312, 2107 
0:1:42:327, 2113 
0:1:42:343, 2118 
0:1:42:359, 2125 
0:1:42:374, 2118 
0:1:42:389, 2083 
0:1:42:405, 2034 
0:1:42:421, 1969 
0:1:42:437, 1907 
0:1:42:453, 1840 
0:1:42:469, 1771 
0:1:42:485, 1648 
0:1:42:501, 1555 
0:1:42:517, 1467 
0:1:42:532, 1388 
0:1:42:548, 1297 
0:1:42:564, 1233 
0:1:42:580, 1181 
0:1:42:596, 1138 
0:1:42:611, 1114 
0:1:42:627, 1092 
0:1:42:643, 1070 
0:1:42:659, 1050 
0:1:42:675, 1033 
0:1:42:691, 1018 
0:1:42:707, 996 
0:1:42:723, 982 
0:1:42:738, 978 
0:1:42:754, 977 
0:1:42:770, 1002 
0:1:42:786, 1096 
0:1:42:802, 1346 
0:1:42:818, 1929 
0:1:42:834, 2488 
0:1:42:849, 2987 
0:1:42:864, 3271 
0:1:42:879, 3537 
0:1:42:895, 3608 
0:1:42:911, 3597 
0:1:42:926, 3519 
0:1:42:942, 3391 
0:1:42:958, 3213 
0:1:42:974, 3067 
0:1:42:990, 2952 
0:1:43:6, 2760 
0:1:43:22, 2594 
0:1:43:38, 2434 
0:1:43:54, 2287 
0:1:43:70, 2168 
0:1:43:85, 2112 
0:1:43:100, 2070 
0:1:43:115, 2065 
0:1:43:130, 2086 
0:1:43:146, 2112 
0:1:43:162, 2141 
0:1:43:178, 2150 
0:1:43:193, 2129 
0:1:43:209, 2086 
0:1:43:225, 2023 
0:1:43:241, 1941 
0:1:43:256, 1856 
0:1:43:271, 1791 
0:1:43:287, 1706 
0:1:43:303, 1650 
0:1:43:318, 1570 
0:1:43:333, 1488 
0:1:43:349, 1413 
0:1:43:365, 1325 
0:1:43:381, 1265 
0:1:43:397, 1217 
0:1:43:413, 1174 
0:1:43:429, 1143 
0:1:43:445, 1106 
0:1:43:461, 1082 
0:1:43:477, 1065 
0:1:43:492, 1046 
0:1:43:507, 1022 
0:1:43:523, 995 
0:1:43:539, 989 
0:1:43:554, 1009 
0:1:43:569, 1052 
0:1:43:585, 1249 
0:1:43:601, 1517 
0:1:43:617, 2014 
0:1:43:632, 2427 
0:1:43:648, 2923 
0:1:43:664, 3208 
0:1:43:680, 3380 
0:1:43:696, 3531 
0:1:43:712, 3554 
0:1:43:728, 3526 
0:1:43:744, 3393 
0:1:43:760, 3287 
0:1:43:776, 3097 
0:1:43:791, 2937 
0:1:43:806, 2775 
0:1:43:822, 2604 
0:1:43:838, 2473 
0:1:43:854, 2304 
0:1:43:870, 2184 
0:1:43:886, 2082 
0:1:43:902, 2028 
0:1:43:918, 2057 
0:1:43:933, 2037 
0:1:43:949, 1996 
0:1:43:964, 1953 
0:1:43:980, 1900 
0:1:43:996, 1826 
0:1:44:12, 1763 
0:1:44:27, 1698 
0:1:44:42, 1635 
0:1:44:57, 1546 
0:1:44:73, 1463 
0:1:44:89, 1404 
0:1:44:105, 1324 
0:1:44:121, 1239 
0:1:44:136, 1186 
0:1:44:151, 1138 
0:1:44:166, 1103 
0:1:44:182, 1073 
0:1:44:198, 1047 
0:1:44:214, 1021 
0:1:44:230, 1007 
0:1:44:246, 990 
0:1:44:261, 984 
0:1:44:276, 985 
0:1:44:292, 1021 
0:1:44:307, 1146 
0:1:44:323, 1458 
0:1:44:339, 1971 
0:1:44:355, 2718 
0:1:44:371, 3227 
0:1:44:387, 3671 
0:1:44:402, 3779 
0:1:44:417, 3784 
0:1:44:433, 3685 
0:1:44:449, 3563 
0:1:44:465, 3425 
0:1:44:480, 3242 
0:1:44:495, 3138 
0:1:44:510, 2998 
0:1:44:525, 2847 
0:1:44:540, 2679 
0:1:44:556, 2488 
0:1:44:572, 2354 
0:1:44:587, 2260 
0:1:44:602, 2209 
0:1:44:618, 2189 
0:1:44:634, 2190 
0:1:44:650, 2198 
0:1:44:665, 2207 
0:1:44:681, 2217 
0:1:44:697, 2214 
0:1:44:713, 2196 
0:1:44:728, 2166 
0:1:44:743, 2126 
0:1:44:758, 2052 
0:1:44:774, 1941 
0:1:44:790, 1851 
0:1:44:806, 1732 
0:1:44:821, 1637 
0:1:44:837, 1546 
0:1:44:853, 1447 
0:1:44:869, 1373 
0:1:44:885, 1305 
0:1:44:901, 1247 
0:1:44:917, 1205 
0:1:44:933, 1157 
0:1:44:948, 1122 
0:1:44:963, 1087 
0:1:44:978, 1055 
0:1:44:994, 1029 
0:1:45:10, 1003 
0:1:45:25, 989 
0:1:45:40, 985 
0:1:45:56, 1001 
0:1:45:72, 1137 
0:1:45:88, 1448 
0:1:45:104, 2075 
0:1:45:120, 2498 
0:1:45:136, 3009 
0:1:45:152, 3383 
0:1:45:167, 3615 
0:1:45:183, 3660 
0:1:45:198, 3605 
0:1:45:213, 3486 
0:1:45:228, 3356 
0:1:45:244, 3217 
0:1:45:259, 3081 
0:1:45:274, 2945 
0:1:45:289, 2764 
0:1:45:304, 2619 
0:1:45:319, 2469 
0:1:45:335, 2362 
0:1:45:351, 2247 
0:1:45:367, 2162 
0:1:45:383, 2112 
0:1:45:399, 2093 
0:1:45:415, 2094 
0:1:45:430, 2104 
0:1:45:445, 2104 
0:1:45:461, 2095 
0:1:45:477, 2071 
0:1:45:492, 2008 
0:1:45:507, 1936 
0:1:45:523, 1852 
0:1:45:539, 1765 
0:1:45:554, 1670 
0:1:45:570, 1579 
0:1:45:586, 1125 
0:1:45:601, 1086 
0:1:45:616, 1048 
0:1:45:631, 1022 
0:1:45:647, 993 
0:1:45:662, 977 
0:1:45:677, 961 
0:1:45:693, 946 
0:1:45:709, 935 
0:1:45:725, 926 
0:1:45:740, 924 
0:1:45:756, 935 
0:1:45:772, 998 
0:1:45:788, 1207 
0:1:45:804, 1500 
0:1:45:820, 2182 
0:1:45:835, 2744 
0:1:45:851, 3199 
0:1:45:867, 3528 
0:1:45:883, 3647 
0:1:45:898, 3617 
0:1:45:913, 3513 
0:1:45:929, 3373 
0:1:45:945, 3183 
0:1:45:961, 3071 
0:1:45:977, 2918 
0:1:45:993, 2798 
0:1:46:9, 2633 
0:1:46:25, 2469 
0:1:46:40, 2315 
0:1:46:56, 2192 
0:1:46:72, 2119 
